% Time() Angle(deg) Cn Ct Cm
0	5.0486	0.56893	0.045386	-0.012378
0.05	5.2607	0.57554	0.051279	-0.0078404
0.1	5.4607	0.60255	0.055718	-0.0097027
0.15	5.7137	0.64253	0.057509	-0.012897
0.2	5.953	0.65268	0.057985	-0.015253
0.25	6.1681	0.67568	0.060085	-0.012438
0.29	6.4346	0.69358	0.064666	-0.01271
0.34	6.704	0.71115	0.069637	-0.0094981
0.39	6.9583	0.74852	0.072132	-0.012415
0.44	7.2549	0.76011	0.071019	-0.015079
0.49	7.559	0.80609	0.078773	-0.017448
0.54	7.8614	0.82627	0.087341	-0.010425
0.59	8.1457	0.83929	0.090894	-0.01088
0.64	8.4541	0.86928	0.089786	-0.01856
0.69	8.7337	0.87497	0.096414	-0.013027
0.74	9.0435	0.91261	0.10464	-0.013522
0.79	9.3456	0.93019	0.1075	-0.01439
0.83	9.6447	0.96163	0.11248	-0.015488
0.88	9.9421	0.97322	0.11618	-0.016205
0.93	10.227	1.0159	0.12469	-0.015257
0.98	10.559	1.0336	0.13266	-0.016141
1.03	10.864	1.0741	0.14029	-0.015812
1.08	11.16	1.0897	0.14228	-0.016576
1.13	11.458	1.1219	0.153	-0.012859
1.18	11.774	1.1446	0.1609	-0.016408
1.23	12.083	1.1691	0.16646	-0.018354
1.28	12.367	1.2114	0.17612	-0.017035
1.33	12.629	1.1883	0.1756	-0.017441
1.37	12.928	1.2401	0.19108	-0.014546
1.42	13.175	1.2664	0.20298	-0.012862
1.47	13.495	1.2743	0.20903	-0.011846
1.52	13.704	1.2855	0.21092	-0.014033
1.57	13.915	1.3052	0.21839	-0.014055
1.62	14.168	1.3279	0.23133	-0.010917
1.67	14.405	1.3388	0.23778	-0.0071312
1.72	14.578	1.3545	0.2441	-0.0095386
1.77	14.762	1.3668	0.24694	-0.01139
1.82	14.894	1.3718	0.25384	-0.009972
1.87	15.075	1.3782	0.26215	-0.0036274
1.91	15.207	1.3901	0.26788	-0.0021292
1.96	15.298	1.3931	0.26823	-0.0014888
2.01	15.363	1.3819	0.27157	-0.0040563
2.06	15.438	1.392	0.28111	0.0035622
2.11	15.51	1.4114	0.28195	-0.0020017
2.16	15.546	1.4127	0.28283	-0.0029529
2.21	15.552	1.4096	0.28425	-0.0012951
2.26	15.627	1.4036	0.28948	0.0032257
2.31	15.668	1.4113	0.29565	0.006654
2.36	15.59	1.4013	0.2917	0.00083024
2.41	15.549	1.396	0.29034	0.0038139
2.45	15.536	1.4025	0.28866	0.0023659
2.5	15.557	1.3988	0.29261	0.0023686
2.55	15.56	1.3963	0.28931	0.0026727
2.6	15.576	1.3886	0.28904	0.0027247
2.65	15.531	1.3755	0.2889	0.0050003
2.7	15.554	1.3778	0.28975	0.0072325
2.75	15.455	1.3745	0.29199	0.0081847
2.8	15.332	1.3459	0.28879	0.013879
2.85	15.219	1.3165	0.28413	0.01425
2.9	15.085	1.2997	0.27882	0.016431
2.95	14.873	1.2866	0.27864	0.017712
2.99	14.733	1.2782	0.27295	0.020168
3.04	14.616	1.2423	0.26262	0.015236
3.09	14.366	1.2314	0.25367	0.020675
3.14	14.12	1.2163	0.251	0.01989
3.19	13.926	1.2022	0.24809	0.023838
3.24	13.683	1.1663	0.23918	0.021438
3.29	13.488	1.1632	0.23152	0.021278
3.34	13.182	1.1403	0.22701	0.027556
3.39	12.965	1.1349	0.2248	0.03227
3.44	12.693	1.1066	0.21626	0.030611
3.49	12.431	1.0776	0.20519	0.029384
3.53	12.104	1.0489	0.19728	0.028832
3.58	11.846	1.0253	0.19379	0.034427
3.63	11.561	1.021	0.18847	0.034524
3.68	11.293	0.99578	0.17941	0.032881
3.73	10.994	0.9693	0.16959	0.031221
3.78	10.7	0.95874	0.16596	0.034477
3.83	10.401	0.92705	0.16283	0.035746
3.88	10.15	0.91833	0.15652	0.036843
3.93	9.8576	0.89778	0.14747	0.035059
3.98	9.5843	0.85561	0.1397	0.041002
4.03	9.2595	0.8596	0.14074	0.041345
4.07	8.9664	0.84216	0.13466	0.036547
4.12	8.7096	0.81452	0.12792	0.041273
4.17	8.3876	0.79265	0.12089	0.03785
4.22	8.0973	0.765	0.11629	0.039016
4.27	7.7904	0.75819	0.11395	0.036278
4.32	7.5136	0.73401	0.10654	0.03656
4.37	7.1838	0.69685	0.096241	0.032339
4.42	6.8766	0.68908	0.090405	0.029419
4.47	6.5875	0.66897	0.09211	0.031422
4.52	6.3483	0.67226	0.088368	0.028587
4.57	6.1105	0.64901	0.082239	0.025037
4.61	5.8546	0.63634	0.075954	0.020345
4.66	5.6077	0.614	0.072141	0.019735
4.71	5.3789	0.60043	0.072829	0.022568
4.76	5.1834	0.58496	0.06793	0.014961
4.81	5.0228	0.56925	0.061908	0.016702
4.86	4.8136	0.55121	0.057253	0.01385
4.91	4.6363	0.54601	0.061423	0.014423
4.96	4.4907	0.53877	0.05943	0.011701
5.01	4.3588	0.52064	0.054436	0.011315
5.06	4.239	0.50517	0.050737	0.0069448
5.11	4.1313	0.50338	0.05206	0.0094362
5.15	4.0661	0.4872	0.052888	0.0096751
5.2	4.0085	0.47183	0.050643	0.0098908
5.25	3.9175	0.45838	0.045274	0.0045612
5.3	3.8462	0.44683	0.042627	0.0048746
5.35	3.8204	0.46181	0.047837	0.0044608
5.4	3.7825	0.46797	0.048991	0.0027765
5.45	3.7764	0.45677	0.043825	0.00094814
5.5	3.787	0.45266	0.040949	-0.0024711
5.55	3.784	0.45499	0.043152	0.0017422
5.6	3.8037	0.46862	0.047895	0.0048658
5.65	3.8189	0.45925	0.046497	0.0017586
5.69	3.7976	0.44929	0.042556	-0.0021341
5.74	3.7703	0.44197	0.04144	0.0011892
5.79	3.7597	0.45353	0.047789	0.0033571
5.84	3.787	0.46428	0.044809	-0.003383
5.89	3.8462	0.45944	0.041244	-0.0037942
5.94	4.0206	0.45931	0.038349	-0.0050387
5.99	4.1328	0.49283	0.0467	-0.0012911
6.04	4.2542	0.51347	0.048428	-0.0067945
6.09	4.3952	0.51916	0.047943	-0.00768
6.14	4.6393	0.53002	0.043816	-0.013079
6.19	4.7939	0.53232	0.047124	-0.0088202
6.23	4.9728	0.55302	0.049128	-0.0092084
