% Time() Angle(deg) Cn Ct Cm
0	0.67996	-0.025159	-0.024477	-0.023779
0.05	1.0113	0.012966	-0.023463	-0.023398
0.1	1.3897	0.058371	-0.023045	-0.028571
0.15	1.7483	0.07995	-0.025397	-0.027959
0.2	2.1569	0.10932	-0.023892	-0.021987
0.25	2.5304	0.16017	-0.02319	-0.022488
0.29	2.9145	0.21068	-0.015973	-0.030096
0.34	3.3455	0.23058	-0.01983	-0.028445
0.39	3.7233	0.26544	-0.014053	-0.027078
0.44	4.1723	0.32494	-0.0086771	-0.022552
0.49	4.5953	0.34291	-0.0077749	-0.021158
0.54	5.0273	0.37077	-0.0058286	-0.023205
0.59	5.4138	0.39483	-0.0027479	-0.023209
0.64	5.8425	0.44773	0.0043396	-0.021416
0.69	6.2135	0.47363	0.0033349	-0.026702
0.74	6.6314	0.52334	0.01372	-0.022077
0.79	7.0234	0.54606	0.016233	-0.021494
0.83	7.4077	0.61019	0.025822	-0.020876
0.88	7.7964	0.65767	0.036188	-0.019684
0.93	8.1321	0.68419	0.042035	-0.02031
0.98	8.4859	0.72476	0.05245	-0.016937
1.03	8.8259	0.74908	0.05726	-0.015832
1.08	9.1689	0.77326	0.065945	-0.017584
1.13	9.4302	0.80016	0.075986	-0.014079
1.18	9.7277	0.81897	0.079801	-0.015297
1.23	10.022	0.8458	0.086586	-0.014209
1.28	10.304	0.88344	0.094497	-0.012932
1.33	10.529	0.90335	0.10392	-0.0095028
1.37	10.753	0.9188	0.11065	-0.010278
1.42	10.959	0.9426	0.11779	-0.0096277
1.47	11.109	0.9789	0.12685	-0.0065292
1.52	11.258	0.95664	0.13006	-0.0048138
1.57	11.433	0.9714	0.13309	-0.0060199
1.62	11.582	1.0236	0.14171	-0.0068296
1.67	11.668	1.0298	0.14912	-0.0055769
1.72	11.768	1.0303	0.15618	0.0049767
1.77	11.828	1.0149	0.15435	0.0038485
1.82	11.885	1.0514	0.15811	0.00014781
1.87	11.929	1.0205	0.15877	0.0039227
1.91	11.96	1.0262	0.15829	0.00010264
1.96	11.976	1.0411	0.16038	0.0041244
2.01	11.977	1.0388	0.16381	0.0057579
2.06	11.97	1.0201	0.15703	0.0011862
2.11	11.93	1.0276	0.16087	0.0010182
2.16	11.941	1.0368	0.16295	0.0058245
2.21	11.939	1.0173	0.15948	0.0046921
2.26	11.953	1.017	0.15665	0.0016769
2.31	11.911	0.98965	0.159	0.015209
2.36	11.736	0.99322	0.15885	0.016456
2.41	11.579	0.97009	0.15186	0.014298
2.45	11.404	0.95533	0.15153	0.015478
2.5	11.176	0.93497	0.14974	0.024406
2.55	10.988	0.92366	0.1382	0.018066
2.6	10.695	0.90423	0.13262	0.01452
2.65	10.44	0.89569	0.13233	0.019553
2.7	10.224	0.84815	0.1207	0.013765
2.75	9.9316	0.82853	0.11472	0.01771
2.8	9.6281	0.80855	0.10668	0.014982
2.85	9.3517	0.79791	0.10769	0.01699
2.9	9.039	0.76638	0.099006	0.017059
2.95	8.7141	0.74564	0.08861	0.014454
2.99	8.3649	0.72947	0.085851	0.017408
3.04	8.0051	0.69017	0.076177	0.017086
3.09	7.6527	0.64416	0.069536	0.016805
3.14	7.2519	0.60335	0.05472	0.011552
3.19	6.8796	0.61323	0.053924	0.0099567
3.24	6.5148	0.58551	0.049511	0.011282
3.29	6.1393	0.54707	0.039701	0.0093358
3.34	5.7501	0.50756	0.029869	0.0038862
3.39	5.3638	0.4968	0.028901	0.011798
3.44	4.9894	0.4588	0.023583	0.006738
3.49	4.5711	0.42502	0.016284	0.0037602
3.53	4.1753	0.36149	0.0098404	0.0078034
3.58	3.7916	0.338	0.0020789	0.011068
3.63	3.4381	0.29654	-0.00011173	0.0088569
3.68	3.0071	0.25113	-0.0069466	0.002861
3.73	2.6139	0.19713	-0.014284	0.0035062
3.78	2.2465	0.19868	-0.0084615	0.0076806
3.83	1.8501	0.16325	-0.016627	0.0054902
3.88	1.4551	0.13006	-0.016112	0.0079322
3.93	1.0797	0.093379	-0.022765	0.0018344
3.98	0.72556	0.049572	-0.019314	0.013161
4.03	0.36372	0.015996	-0.02174	0.0032615
4.07	0.039806	0.00342	-0.022683	0.0049706
4.12	-0.28113	-0.060576	-0.029997	0.00017174
4.17	-0.67517	-0.092862	-0.031777	0.00077365
4.22	-0.95821	-0.080583	-0.022372	0.0012098
4.27	-1.2398	-0.13307	-0.022245	0.0082874
4.32	-1.529	-0.18153	-0.026971	-0.00017963
4.37	-1.8031	-0.19392	-0.023408	0.001876
4.42	-2.0619	-0.20466	-0.021857	-0.0013138
4.47	-2.3011	-0.2289	-0.020561	-0.0037142
4.52	-2.5585	-0.25614	-0.020712	-0.0040776
4.57	-2.7779	-0.2718	-0.016025	-0.00043869
4.61	-2.9196	-0.28199	-0.014776	-0.0051519
4.66	-3.107	-0.31119	-0.012135	-0.0054096
4.71	-3.2716	-0.33808	-0.01505	-0.010949
4.76	-3.4011	-0.32872	-0.0079234	-0.005913
4.81	-3.5246	-0.35437	-0.0092873	-0.0072675
4.86	-3.642	-0.35934	-0.0070061	-0.0059305
4.91	-3.7121	-0.38718	-0.012342	-0.0094077
4.96	-3.799	-0.38469	-0.0085173	-0.0076818
5.01	-3.802	-0.3923	-0.0091052	-0.008385
5.06	-3.9072	-0.40951	-0.0055689	-0.0073183
5.11	-3.895	-0.39	-0.0075866	-0.011095
5.15	-3.8737	-0.39178	-0.0039821	-0.0091547
5.2	-3.8981	-0.39943	-0.003378	-0.014551
5.25	-3.9011	-0.39308	-0.0025791	-0.015986
5.3	-3.8676	-0.42038	-0.0062791	-0.011812
5.35	-3.86	-0.42606	-0.0033812	-0.011063
5.4	-3.8737	-0.39962	-0.0017414	-0.014674
5.45	-3.8996	-0.38121	-0.0012844	-0.014505
5.5	-3.7395	-0.41475	-0.010714	-0.018646
5.55	-3.6709	-0.39053	-0.0023872	-0.018339
5.6	-3.5429	-0.37105	-0.0048857	-0.020176
5.65	-3.36	-0.34851	-0.0056257	-0.022776
5.69	-3.1192	-0.35475	-0.01392	-0.021167
5.74	-2.8601	-0.31486	-0.010727	-0.021684
5.79	-2.6072	-0.2916	-0.010702	-0.025786
5.84	-2.3407	-0.25616	-0.010374	-0.021211
5.89	-2.0162	-0.26664	-0.021725	-0.026667
5.94	-1.6904	-0.23216	-0.017341	-0.020512
5.99	-1.3966	-0.1946	-0.015829	-0.022021
6.04	-1.0708	-0.16603	-0.021283	-0.025422
6.09	-0.74669	-0.15089	-0.021676	-0.022897
6.14	-0.39979	-0.10751	-0.014642	-0.018923
6.19	-0.049928	-0.10438	-0.02424	-0.02452
6.23	0.23599	-0.074192	-0.025597	-0.024946
