% Time() Angle(deg) Cn Ct Cm
0	1.1542	0.12019	0.0013927	-0.022089
0.05	1.5584	0.14973	0.0021544	-0.017714
0.1	1.9215	0.19028	0.00053483	-0.021702
0.15	2.3528	0.23814	0.0010725	-0.027179
0.2	2.7749	0.25278	0.002335	-0.020316
0.25	3.2347	0.29637	0.0048801	-0.022939
0.29	3.6641	0.34954	0.0083341	-0.024578
0.34	4.1268	0.3799	0.012372	-0.024214
0.39	4.5862	0.42324	0.01454	-0.022232
0.44	5.0683	0.46453	0.016139	-0.026041
0.49	5.5274	0.5005	0.022377	-0.022277
0.54	6.0182	0.54887	0.027921	-0.022605
0.59	6.4845	0.57724	0.030794	-0.025326
0.64	6.9538	0.63208	0.040386	-0.023336
0.69	7.4803	0.6914	0.04907	-0.023421
0.74	7.9522	0.74682	0.057805	-0.025029
0.79	8.4526	0.78995	0.066381	-0.021891
0.83	8.9725	0.84061	0.077815	-0.018353
0.88	9.4348	0.8952	0.088427	-0.022016
0.93	9.9527	0.93143	0.099833	-0.018273
0.98	10.443	0.9845	0.11393	-0.019373
1.03	10.925	1.0135	0.12295	-0.016739
1.08	11.382	1.0771	0.14364	-0.011618
1.13	11.887	1.1215	0.15434	-0.015815
1.18	12.319	1.1658	0.16885	-0.015636
1.23	12.797	1.189	0.1812	-0.012292
1.28	13.206	1.2382	0.19904	-0.011154
1.33	13.646	1.2564	0.20803	-0.010854
1.37	14.078	1.3043	0.2272	-0.0068097
1.42	14.496	1.3364	0.24371	-0.0055551
1.47	14.852	1.3793	0.26159	-0.0032456
1.52	15.195	1.4016	0.27291	-0.0062192
1.57	15.57	1.4428	0.29142	-0.0035926
1.62	15.875	1.4596	0.31112	-9.703e-05
1.67	16.149	1.498	0.32631	0.0024353
1.72	16.42	1.5195	0.34117	0.0058904
1.77	16.638	1.5167	0.34782	0.0056611
1.82	16.878	1.5418	0.36208	0.0046283
1.87	17.043	1.563	0.3745	0.0090869
1.91	17.189	1.5699	0.3836	0.010016
1.96	17.337	1.5708	0.39296	0.014032
2.01	17.439	1.6026	0.40061	0.013324
2.06	17.498	1.5887	0.40378	0.016917
2.11	17.577	1.5911	0.40663	0.012409
2.16	17.598	1.5784	0.40859	0.012423
2.21	17.592	1.5841	0.41449	0.017475
2.26	17.532	1.5741	0.41078	0.015895
2.31	17.571	1.5844	0.41062	0.014683
2.36	17.589	1.5807	0.40665	0.0094497
2.41	17.562	1.5816	0.40758	0.010748
2.45	17.573	1.5749	0.40551	0.014588
2.5	17.585	1.5448	0.40008	0.010529
2.55	17.447	1.5296	0.39384	0.012827
2.6	17.204	1.5163	0.38838	0.0077675
2.65	17.1	1.4937	0.38083	0.010615
2.7	16.914	1.4582	0.3732	0.010097
2.75	16.609	1.4342	0.35945	0.0082247
2.8	16.396	1.4529	0.35097	0.0019966
2.85	16.152	1.3877	0.33303	0.0031621
2.9	15.82	1.3603	0.31639	0.0034798
2.95	15.557	1.3293	0.30408	-0.0019064
2.99	15.217	1.3184	0.29067	-0.002068
3.04	14.845	1.2737	0.27003	-0.0060654
3.09	14.505	1.2305	0.25207	-0.0078543
3.14	14.127	1.2131	0.24098	-0.0087047
3.19	13.716	1.1474	0.22099	-0.0040518
3.24	13.318	1.123	0.20881	-0.0062981
3.29	12.873	1.0824	0.19223	-0.0084249
3.34	12.458	1.0289	0.18001	-0.00083616
3.39	12.013	0.96993	0.16034	-0.00082819
3.44	11.57	0.93738	0.14823	-0.0020116
3.49	11.122	0.8785	0.13411	0.0010284
3.53	10.683	0.82895	0.12531	0.010879
3.58	10.271	0.7853	0.11776	0.015265
3.63	9.7881	0.76096	0.11184	0.014803
3.68	9.3396	0.723	0.10196	0.017916
3.73	8.8607	0.66873	0.098406	0.035528
3.78	8.3967	0.63631	0.087433	0.034339
3.83	7.9189	0.59355	0.080613	0.037666
3.88	7.4455	0.55511	0.074609	0.044291
3.93	6.9068	0.53492	0.068904	0.042038
3.98	6.3997	0.50031	0.060743	0.041627
4.03	5.9606	0.46459	0.056339	0.047828
4.07	5.4259	0.4196	0.046238	0.042045
4.12	4.9758	0.37962	0.041027	0.046674
4.17	4.4816	0.34965	0.037457	0.044832
4.22	4.0631	0.30738	0.028427	0.04322
4.27	3.6019	0.28072	0.024801	0.041229
4.32	3.1361	0.25938	0.020536	0.038786
4.37	2.6777	0.23004	0.016999	0.032069
4.42	2.292	0.19708	0.012726	0.029423
4.47	1.8501	0.17471	0.010272	0.030832
4.52	1.4611	0.14224	0.0060046	0.026346
4.57	1.0372	0.093564	0.0028744	0.024653
4.61	0.6982	0.08582	0.0016754	0.018782
4.66	0.34243	0.048504	0.0010446	0.018524
4.71	0.01091	0.034355	0.0032667	0.019509
4.76	-0.30091	0.0016661	-9.5445e-05	0.01641
4.81	-0.60213	-0.028251	0.0023977	0.015653
4.86	-0.86994	-0.031802	0.0027628	0.015521
4.91	-1.1119	-0.076715	0.0014218	0.013648
4.96	-1.3281	-0.10857	-0.002855	0.011617
5.01	-1.5305	-0.098977	0.0026649	0.0067113
5.06	-1.7056	-0.12629	0.00070775	0.0084767
5.11	-1.8289	-0.13146	0.0039603	0.0032903
5.15	-1.9751	-0.14817	0.0042913	0.0032495
5.2	-2.0848	-0.15645	0.0079969	0.0028121
5.25	-2.132	-0.17799	0.0068991	0.0016929
5.3	-2.164	-0.16398	0.0055357	-0.0035046
5.35	-2.1883	-0.17663	0.0058723	-0.0035842
5.4	-2.1762	-0.18017	0.0064339	-0.0043133
5.45	-2.1564	-0.17252	0.006929	-0.0061561
5.5	-2.1472	-0.1844	0.0047775	-0.005609
5.55	-2.1701	-0.17428	0.010374	-0.0049218
5.6	-2.1655	-0.18771	0.0057604	-0.0066053
5.65	-2.1625	-0.17408	0.0067391	-0.0070931
5.69	-2.0878	-0.16112	0.0047857	-0.013314
5.74	-1.8883	-0.15641	0.0061312	-0.013928
5.79	-1.698	-0.1297	0.0081119	-0.012001
5.84	-1.526	-0.12146	0.0052959	-0.012841
5.89	-1.2489	-0.094255	0.0061544	-0.015085
5.94	-1.0282	-0.073258	0.003364	-0.018582
5.99	-0.76951	-0.060388	0.0032383	-0.015994
6.04	-0.44847	-0.030933	0.0021914	-0.019632
6.09	-0.13358	-0.016141	-0.0015595	-0.021885
6.14	0.17972	0.01142	0.00051053	-0.017167
6.19	0.54617	0.057782	0.0026087	-0.017764
6.23	0.87301	0.061871	-0.003346	-0.018038
