% Time() Angle(deg) Cn Ct Cm
0	-2.6362	-0.2468	0.02309	-0.017395
0.05	-2.2249	-0.21756	0.018288	-0.020371
0.1	-1.8137	-0.18988	0.014627	-0.02271
0.15	-1.3463	-0.14214	0.012712	-0.021166
0.2	-0.89125	-0.10513	0.0089587	-0.021274
0.25	-0.39522	-0.071083	0.0048017	-0.0248
0.29	0.094556	-0.010195	0.006173	-0.022182
0.34	0.63131	0.023379	0.0011201	-0.025453
0.39	1.1101	0.060039	0.0017109	-0.022862
0.44	1.6268	0.11821	0.0028782	-0.022143
0.49	2.1189	0.15319	-0.00011992	-0.021693
0.54	2.6458	0.20182	0.0007867	-0.022408
0.59	3.1619	0.25172	0.0038938	-0.016628
0.64	3.6687	0.29973	0.0056941	-0.027019
0.69	4.1283	0.34954	0.0073346	-0.027987
0.74	4.659	0.38983	0.011191	-0.021869
0.79	5.1789	0.44708	0.017402	-0.021455
0.83	5.6562	0.497	0.021457	-0.021009
0.88	6.1272	0.53273	0.02863	-0.019615
0.93	6.6147	0.57321	0.034174	-0.01656
0.98	7.0445	0.64156	0.042909	-0.016818
1.03	7.4894	0.66577	0.048825	-0.018767
1.08	7.8841	0.70355	0.058343	-0.010443
1.13	8.2909	0.74494	0.065706	-0.01093
1.18	8.631	0.79614	0.076839	-0.011752
1.23	8.9785	0.81876	0.081782	-0.0070426
1.28	9.3154	0.85497	0.090924	-0.0080071
1.33	9.6145	0.89565	0.10365	-0.0053216
1.37	9.8576	0.89599	0.10607	-0.002963
1.42	10.105	0.9174	0.11533	-0.0044045
1.47	10.321	0.95534	0.12438	0.00030457
1.52	10.464	0.98417	0.13265	-0.00054909
1.57	10.566	0.9862	0.13992	0.0062573
1.62	10.719	0.99159	0.14207	0.0041545
1.67	10.768	0.98506	0.14696	0.0091851
1.72	10.804	1.0066	0.14946	0.0078456
1.77	10.796	1.0168	0.15231	0.0045444
1.82	10.778	1.017	0.1552	0.0084819
1.87	10.765	1.0171	0.15634	0.0070695
1.91	10.778	1.0359	0.16128	0.009643
1.96	10.763	1.0113	0.1553	0.0087236
2.01	10.763	1.0088	0.15922	0.0121
2.06	10.641	1.0117	0.15902	0.014191
2.11	10.476	0.98228	0.15385	0.018732
2.16	10.288	0.97788	0.15264	0.018468
2.21	10.024	0.9483	0.14891	0.023783
2.26	9.7806	0.91541	0.14204	0.023197
2.31	9.4861	0.89391	0.13593	0.025278
2.36	9.2097	0.88148	0.12816	0.022436
2.41	8.8501	0.85415	0.12343	0.024882
2.45	8.507	0.83537	0.11979	0.026896
2.5	8.1745	0.80162	0.10829	0.023827
2.55	7.7571	0.7495	0.10031	0.023981
2.6	7.3441	0.73013	0.09509	0.023558
2.65	6.9189	0.69417	0.083702	0.020481
2.7	6.4512	0.64932	0.07569	0.025236
2.75	5.9606	0.6211	0.070501	0.024143
2.8	5.4819	0.57267	0.060866	0.024521
2.85	5.0228	0.53413	0.055189	0.026879
2.9	4.5104	0.46972	0.044071	0.025308
2.95	4.0312	0.41722	0.035654	0.024162
2.99	3.5564	0.38651	0.030311	0.025382
3.04	3.0056	0.33206	0.025162	0.024206
3.09	2.494	0.27923	0.017194	0.021318
3.14	1.9777	0.23061	0.014367	0.021592
3.19	1.449	0.18731	0.012018	0.024435
3.24	0.93685	0.13618	0.0075992	0.024809
3.29	0.47471	0.092943	0.0010099	0.018685
3.34	-0.072742	0.047521	0.0014888	0.020608
3.39	-0.54888	0.0087666	-0.000675	0.018878
3.44	-1.0282	-0.038795	0.0025721	0.022305
3.49	-1.4849	-0.096975	0.00089363	0.017002
3.53	-1.8822	-0.11982	0.00079824	0.015426
3.58	-2.3026	-0.1622	0.0014304	0.015874
3.63	-2.72	-0.19279	0.0059032	0.014398
3.68	-3.0826	-0.24141	0.0052872	0.013974
3.73	-3.4499	-0.25774	0.010755	0.012664
3.78	-3.7807	-0.31083	0.012159	0.011126
3.83	-4.0795	-0.32588	0.016445	0.012233
3.88	-4.3403	-0.3622	0.014715	0.0046394
3.93	-4.5904	-0.38003	0.020332	0.0049407
3.98	-4.7933	-0.39507	0.021735	0.0027879
4.03	-4.9809	-0.42044	0.027332	0.0049768
4.07	-5.1319	-0.42851	0.032635	0.0035402
4.12	-5.2052	-0.43723	0.032576	-0.00062223
4.17	-5.286	-0.45658	0.033835	-0.0018059
4.22	-5.3455	-0.45265	0.038597	-0.0028107
4.27	-5.37	-0.47373	0.035925	-0.0036272
4.32	-5.3791	-0.47657	0.041395	0.00079407
4.37	-5.3349	-0.46666	0.043423	-0.0010258
4.42	-5.3318	-0.47146	0.043245	-0.0040479
4.47	-5.37	-0.48171	0.043815	-0.0059156
4.52	-5.315	-0.46264	0.044176	-0.010513
4.57	-5.2174	-0.46477	0.0432	-0.007625
4.61	-5.0679	-0.46656	0.040226	-0.0082244
4.66	-4.8405	-0.43391	0.04008	-0.01059
4.71	-4.6178	-0.41024	0.039302	-0.015315
4.76	-4.3586	-0.39917	0.034278	-0.01481
4.81	-4.1192	-0.38251	0.032404	-0.015953
4.86	-3.7807	-0.35308	0.030356	-0.01357
4.91	-3.5109	-0.31767	0.028679	-0.016499
4.96	-3.1131	-0.29567	0.023957	-0.015816
5.01	-2.755	-0.26006	0.021346	-0.021654
5.06	-2.3467	-0.23139	0.017241	-0.019496
5.11	-1.9112	-0.19583	0.014553	-0.020504
5.15	-1.4681	-0.16754	0.011649	-0.021554
5.2	-1.0221	-0.11762	0.0088852	-0.023882
5.25	-0.55345	-0.070998	0.0071036	-0.027391
5.3	-0.016468	-0.029951	0.004049	-0.024656
5.35	0.48231	0.0099392	0.0036614	-0.022162
5.4	0.92621	0.052072	0.0058441	-0.018893
5.45	1.4672	0.099226	0.00012518	-0.025461
5.5	1.9898	0.13834	0.0016204	-0.022982
5.55	2.497	0.19548	0.0012396	-0.026276
5.6	2.9767	0.24977	0.0046095	-0.025106
5.65	3.5124	0.29265	0.0047188	-0.023298
5.69	4.0237	0.33014	0.0074016	-0.023215
5.74	4.5165	0.37858	0.0094208	-0.022036
5.79	5.0001	0.42383	0.016849	-0.021604
5.84	5.5137	0.47734	0.018704	-0.022408
5.89	6.0076	0.52156	0.024506	-0.024963
5.94	6.4452	0.56338	0.030572	-0.019445
5.99	6.9432	0.61336	0.039994	-0.020437
6.04	7.3608	0.65188	0.04564	-0.015992
6.09	7.7843	0.6911	0.054003	-0.014476
6.14	8.1699	0.72496	0.062038	-0.012623
6.19	8.5494	0.76809	0.068058	-0.015229
6.23	8.8864	0.81401	0.082747	-0.009253
