% Time() Angle(deg) Cn Ct Cm
0	5.3592	0.50431	0.027691	-0.0036557
0.05	5.6001	0.52849	0.030774	-0.0042971
0.1	5.897	0.57368	0.039384	-0.004458
0.15	6.1938	0.60371	0.042726	-0.0049237
0.2	6.4876	0.62333	0.046325	-0.0061791
0.25	6.8115	0.64843	0.046772	-0.0051433
0.29	7.1232	0.68232	0.053721	-0.0073194
0.34	7.4863	0.72537	0.061896	-0.0056578
0.39	7.7964	0.75663	0.068169	-0.0063697
0.44	8.1684	0.77877	0.072646	-0.0050702
0.49	8.5584	0.82128	0.080857	-0.0040584
0.54	8.9302	0.86375	0.090815	-0.005355
0.59	9.329	0.90169	0.09951	-0.0040896
0.64	9.7081	0.91775	0.1078	-0.0042656
0.69	10.131	0.95546	0.11668	-0.0021591
0.74	10.532	0.98982	0.12497	-0.0015599
0.79	10.893	1.0262	0.13667	-0.000913
0.83	11.312	1.0533	0.14365	-0.0049215
0.88	11.7	1.078	0.15621	6.0025e-05
0.93	12.122	1.108	0.16371	-0.0011549
0.98	12.51	1.1403	0.17658	-0.0013261
1.03	12.908	1.1892	0.1889	-0.0022407
1.08	13.295	1.1984	0.1994	0.0018263
1.13	13.716	1.2454	0.21394	0.0015425
1.18	14.132	1.2735	0.22687	0.0014131
1.23	14.527	1.3075	0.23929	0.0026659
1.28	14.918	1.3467	0.25763	0.0061816
1.33	15.303	1.3735	0.27048	0.0054936
1.37	15.668	1.3972	0.28616	0.0093292
1.42	16.013	1.424	0.29995	0.0082
1.47	16.344	1.4707	0.32175	0.0095187
1.52	16.676	1.5042	0.3355	0.011189
1.57	17.036	1.5228	0.34793	0.013754
1.62	17.309	1.5589	0.3646	0.012567
1.67	17.609	1.596	0.38083	0.012298
1.72	17.874	1.596	0.39319	0.013596
1.77	18.084	1.6338	0.41396	0.020829
1.82	18.352	1.626	0.42055	0.0181
1.87	18.523	1.6628	0.43198	0.020313
1.91	18.73	1.6838	0.44708	0.019498
1.96	18.902	1.6905	0.45778	0.024304
2.01	19.016	1.6997	0.46065	0.020581
2.06	19.12	1.7136	0.47	0.027277
2.11	19.203	1.7191	0.47338	0.021689
2.16	19.281	1.7415	0.48317	0.025284
2.21	19.349	1.7401	0.48748	0.023173
2.26	19.324	1.7377	0.48728	0.020662
2.31	19.346	1.7382	0.48805	0.020094
2.36	19.336	1.7461	0.48922	0.015554
2.41	19.319	1.7639	0.48755	0.014349
2.45	19.343	1.7558	0.48034	0.012026
2.5	19.351	1.7544	0.47769	0.0060984
2.55	19.321	1.7496	0.46952	0.0026802
2.6	19.345	1.732	0.46405	0.0039289
2.65	19.293	1.7298	0.45657	0.0023524
2.7	19.131	1.7254	0.44535	0.0030704
2.75	18.956	1.7131	0.43778	0.0016732
2.8	18.89	1.7192	0.41632	-0.012955
2.85	18.655	1.7164	0.39499	-0.01714
2.9	18.439	1.719	0.37834	-0.017938
2.95	18.241	1.7023	0.34402	-0.033579
2.99	17.964	1.6703	0.30972	-0.038375
3.04	17.756	1.6461	0.277	-0.043943
3.09	17.513	1.6396	0.23906	-0.064973
3.14	17.205	1.6134	0.20033	-0.079765
3.19	16.916	1.5596	0.16962	-0.093206
3.24	16.629	1.5463	0.13097	-0.098457
3.29	16.303	1.4868	0.10518	-0.10341
3.34	15.967	1.4376	0.078351	-0.11055
3.39	15.609	1.319	0.056514	-0.10102
3.44	15.207	1.261	0.036863	-0.10589
3.49	14.858	1.2068	0.019474	-0.10676
3.53	14.472	1.1326	0.0098831	-0.098638
3.58	14.091	1.0624	0.0024029	-0.090753
3.63	13.707	0.9809	-0.0038981	-0.080029
3.68	13.325	0.90754	-0.0091945	-0.068879
3.73	12.922	0.82597	-0.01554	-0.068572
3.78	12.532	0.76201	-0.015496	-0.058751
3.83	12.158	0.70639	-0.020242	-0.04689
3.88	11.792	0.64832	-0.016209	-0.038131
3.93	11.413	0.58426	-0.013615	-0.032226
3.98	11.078	0.54339	-0.015265	-0.027929
4.03	10.677	0.46926	-0.017198	-0.015194
4.07	10.304	0.39213	-0.011248	0.0031244
4.12	9.9557	0.3775	-0.0068	0.00852
4.17	9.5752	0.34287	-0.0013609	0.014615
4.22	9.2067	0.30117	0.0019673	0.025124
4.27	8.8153	0.25068	0.0075146	0.038173
4.32	8.4511	0.24597	0.0096768	0.037683
4.37	8.0958	0.21477	0.0096589	0.041366
4.42	7.7526	0.21967	0.0095878	0.040685
4.47	7.3835	0.18521	0.014775	0.049669
4.52	7.0158	0.16859	0.013986	0.055952
4.57	6.7025	0.16339	0.013533	0.056531
4.61	6.4013	0.16098	0.017006	0.061391
4.66	6.0727	0.17508	0.017636	0.05655
4.71	5.7258	0.16572	0.013967	0.053483
4.76	5.4698	0.16584	0.01416	0.049011
4.81	5.1971	0.16695	0.013568	0.04617
4.86	4.9394	0.18447	0.015534	0.045627
4.91	4.6635	0.17968	0.014053	0.043278
4.96	4.4119	0.1849	0.015271	0.043509
5.01	4.2709	0.1899	0.011095	0.036838
5.06	4.1025	0.20786	0.015718	0.032668
5.11	3.9812	0.20321	0.011451	0.030521
5.15	3.8037	0.21526	0.012177	0.026882
5.2	3.6945	0.22406	0.013327	0.022144
5.25	3.5974	0.22427	0.0099581	0.019698
5.3	3.5488	0.23338	0.011854	0.017218
5.35	3.4866	0.2475	0.014647	0.018739
5.4	3.4259	0.26055	0.014192	0.018656
5.45	3.4259	0.25527	0.0099098	0.0099544
5.5	3.4593	0.2597	0.0098855	0.0088112
5.55	3.4578	0.28393	0.014072	0.012157
5.6	3.4275	0.26945	0.011541	0.013136
5.65	3.4396	0.28294	0.016216	0.011271
5.69	3.432	0.29323	0.011493	0.0063901
5.74	3.4548	0.29751	0.015192	0.012227
5.79	3.4259	0.30038	0.013251	0.0070313
5.84	3.4927	0.32063	0.014626	0.0045753
5.89	3.6839	0.34081	0.015286	0.0023823
5.94	3.8523	0.36818	0.018462	0.00046894
5.99	3.9964	0.39356	0.018476	-0.00068644
6.04	4.1799	0.4044	0.019055	-0.0018602
6.09	4.3997	0.42491	0.022106	-0.00064774
6.14	4.6302	0.43956	0.022772	0.00013663
6.19	4.894	0.46642	0.023902	-0.0059413
6.23	5.1455	0.50039	0.027295	-0.0046056
