% Time() Angle(deg) Cn Ct Cm
0	0.43214	0.053645	0.00076212	-0.0080606
0.05	0.69516	0.070286	0.0010219	-0.0061229
0.1	0.97637	0.087013	0.0013079	-0.0069718
0.15	1.2894	0.12689	0.0016839	-0.0083186
0.2	1.5781	0.154	0.0005898	-0.01049
0.25	1.8865	0.17653	0.0041032	-0.0083121
0.29	2.2222	0.20572	0.005095	-0.0069108
0.34	2.582	0.24357	0.0052899	-0.011102
0.39	2.913	0.26846	0.0090862	-0.0068986
0.44	3.2924	0.29649	0.0086467	-0.010699
0.49	3.6323	0.31365	0.0088976	-0.011195
0.54	4.0297	0.35246	0.013277	-0.010325
0.59	4.4164	0.38813	0.015277	-0.011381
0.64	4.8212	0.42133	0.018166	-0.012913
0.69	5.1865	0.46338	0.021644	-0.008667
0.74	5.5683	0.48262	0.026812	-0.0080953
0.79	5.9757	0.51871	0.029712	-0.0085058
0.83	6.3437	0.56426	0.035157	-0.010199
0.88	6.7555	0.60257	0.039318	-0.0095574
0.93	7.1474	0.62599	0.046694	-0.0052799
0.98	7.5559	0.67542	0.057497	-0.0036706
1.03	7.9749	0.72914	0.062541	-0.0058623
1.08	8.3559	0.75559	0.071254	-0.0020362
1.13	8.7519	0.8075	0.080755	-0.0040095
1.18	9.1568	0.82406	0.088776	5.8042e-05
1.23	9.542	0.88686	0.098758	-0.0015235
1.28	9.9316	0.91841	0.1081	-0.00046519
1.33	10.316	0.94387	0.1171	0.0024541
1.37	10.665	0.98469	0.12926	0.0019252
1.42	11.003	1.0027	0.13611	0.0039608
1.47	11.385	1.0318	0.14485	0.0038087
1.52	11.698	1.0733	0.15638	0.0044887
1.57	12.045	1.0953	0.16904	0.0065909
1.62	12.3	1.1098	0.17598	0.0096645
1.67	12.62	1.1367	0.18385	0.0079675
1.72	12.887	1.1771	0.19986	0.010699
1.77	13.107	1.2008	0.20638	0.0085002
1.82	13.348	1.2182	0.21979	0.016801
1.87	13.57	1.2342	0.22891	0.016683
1.91	13.739	1.2554	0.23714	0.018036
1.96	13.887	1.2643	0.24639	0.02264
2.01	14.055	1.2792	0.25408	0.022414
2.06	14.183	1.2899	0.26411	0.028009
2.11	14.273	1.3022	0.26972	0.027549
2.16	14.336	1.3026	0.27639	0.026505
2.21	14.366	1.2961	0.27678	0.0286
2.26	14.383	1.3113	0.28527	0.032654
2.31	14.38	1.3022	0.28534	0.03306
2.36	14.371	1.3102	0.28407	0.029868
2.41	14.371	1.3073	0.28787	0.034904
2.45	14.371	1.2946	0.28667	0.031675
2.5	14.389	1.286	0.28588	0.035984
2.55	14.384	1.2769	0.28453	0.038461
2.6	14.393	1.2875	0.28621	0.035464
2.65	14.279	1.277	0.28703	0.039363
2.7	14.138	1.27	0.28413	0.037968
2.75	13.984	1.2486	0.28166	0.044693
2.8	13.837	1.2298	0.27792	0.044165
2.85	13.67	1.2141	0.27276	0.045227
2.9	13.488	1.1931	0.26413	0.046392
2.95	13.223	1.1726	0.2603	0.048762
2.99	13.032	1.143	0.2502	0.046203
3.04	12.852	1.1338	0.24814	0.050265
3.09	12.547	1.1172	0.23714	0.048662
3.14	12.294	1.1011	0.23098	0.04734
3.19	12.015	1.0618	0.22115	0.051711
3.24	11.722	1.0479	0.21369	0.050945
3.29	11.454	1.0236	0.20341	0.049746
3.34	11.121	0.99897	0.19586	0.050111
3.39	10.83	0.96574	0.18595	0.053005
3.44	10.478	0.93746	0.17904	0.050709
3.49	10.182	0.90515	0.17061	0.053026
3.53	9.7942	0.88414	0.16117	0.049414
3.58	9.4393	0.85431	0.1536	0.052759
3.63	9.042	0.83121	0.14629	0.052648
3.68	8.6763	0.80763	0.13907	0.053572
3.73	8.3302	0.77062	0.12699	0.049387
3.78	7.9129	0.73894	0.11767	0.051847
3.83	7.5453	0.70035	0.10989	0.051209
3.88	7.1126	0.67788	0.09881	0.047372
3.93	6.7434	0.65363	0.091798	0.045073
3.98	6.3468	0.62215	0.086371	0.04648
4.03	5.953	0.6054	0.080024	0.044408
4.07	5.5486	0.56526	0.072869	0.04219
4.12	5.1713	0.52838	0.06322	0.042305
4.17	4.7651	0.49857	0.055317	0.041221
4.22	4.3815	0.46399	0.051901	0.042512
4.27	4.0252	0.41028	0.040329	0.040685
4.32	3.6111	0.39073	0.039875	0.039063
4.37	3.2302	0.3523	0.032047	0.034598
4.42	2.8553	0.31557	0.025889	0.035321
4.47	2.494	0.28694	0.023285	0.034011
4.52	2.128	0.24353	0.018378	0.035354
4.57	1.7878	0.2213	0.013722	0.029144
4.61	1.4611	0.19968	0.012061	0.030321
4.66	1.1314	0.15621	0.0066994	0.025297
4.71	0.81829	0.13262	0.0042208	0.027193
4.76	0.55833	0.097287	0.0052804	0.026949
4.81	0.2588	0.07239	0.0034229	0.026244
4.86	-0.033197	0.047142	-0.00011518	0.020929
4.91	-0.26288	0.01749	0.0013276	0.023121
4.96	-0.46977	-0.0034916	-0.0015476	0.020325
5.01	-0.69647	-0.011843	6.6022e-05	0.015043
5.06	-0.90342	-0.036347	-0.0022099	0.014586
5.11	-1.0404	-0.05906	-0.0029115	0.01118
5.15	-1.1926	-0.076738	-0.0018743	0.01209
5.2	-1.3144	-0.083819	-0.0013247	0.013838
5.25	-1.3966	-0.096567	-0.00076876	0.012638
5.3	-1.4772	-0.10184	-0.0031479	0.0059346
5.35	-1.5321	-0.11095	-0.00036924	0.0064029
5.4	-1.5625	-0.10686	0.0019953	0.0046988
5.45	-1.5716	-0.096577	0.0066873	0.0066555
5.5	-1.5442	-0.1252	-0.0037895	-0.00013285
5.55	-1.5442	-0.11938	0.00027005	0.0023584
5.6	-1.5488	-0.11443	0.0013879	0.0015059
5.65	-1.5579	-0.11876	0.0004458	-0.00049401
5.69	-1.5595	-0.1192	0.003033	0.001735
5.74	-1.5701	-0.11302	0.0023917	-0.00085279
5.79	-1.5579	-0.10192	0.0030097	-0.0019929
5.84	-1.4925	-0.095784	0.0049683	-0.0024414
5.89	-1.287	-0.083341	0.0017831	-0.004815
5.94	-1.1469	-0.077591	0.002696	-0.0061851
5.99	-1.0023	-0.074646	-0.0020639	-0.0081793
6.04	-0.78473	-0.044589	0.0028473	-0.0090825
6.09	-0.58388	-0.039015	0.00083115	-0.0060534
6.14	-0.33285	-0.019075	0.0020718	-0.0072272
6.19	-0.042323	-0.0018707	-0.0011343	-0.0098799
6.23	0.22382	0.029974	0.0023485	-0.0096827
