% Time() Angle(deg) Cn Ct Cm
0	6.595	0.61433	0.031932	-0.018479
0.05	6.8826	0.67166	0.04205	-0.019688
0.1	7.217	0.68344	0.044809	-0.019309
0.15	7.5695	0.74386	0.052815	-0.02258
0.2	7.9159	0.77526	0.059322	-0.023839
0.25	8.2591	0.80406	0.062618	-0.023308
0.29	8.6431	0.85077	0.074032	-0.020421
0.34	9.0208	0.89569	0.084826	-0.023232
0.39	9.4529	0.92344	0.093615	-0.019594
0.44	9.847	0.95586	0.096876	-0.022307
0.49	10.264	1.011	0.11593	-0.018756
0.54	10.656	1.0325	0.12016	-0.021074
0.59	11.027	1.0592	0.13042	-0.018463
0.64	11.48	1.0896	0.14137	-0.022261
0.69	11.896	1.1457	0.15444	-0.019787
0.74	12.304	1.1464	0.16059	-0.021413
0.79	12.702	1.2064	0.17778	-0.021533
0.83	13.083	1.2501	0.19383	-0.015661
0.88	13.543	1.2736	0.20395	-0.017467
0.93	13.971	1.3295	0.22161	-0.017169
0.98	14.392	1.3685	0.23899	-0.018176
1.03	14.793	1.3957	0.25472	-0.014331
1.08	15.223	1.4398	0.27263	-0.012095
1.13	15.587	1.476	0.28912	-0.013753
1.18	15.971	1.4983	0.30456	-0.015395
1.23	16.366	1.5515	0.32346	-0.015567
1.28	16.692	1.5878	0.34123	-0.012605
1.33	17.024	1.6019	0.35395	-0.009103
1.37	17.393	1.6451	0.3762	-0.011192
1.42	17.687	1.6711	0.39539	-0.0069136
1.47	17.947	1.6806	0.40927	-0.006464
1.52	18.258	1.7286	0.42223	-0.0094578
1.57	18.529	1.7215	0.4337	-0.0073307
1.62	18.773	1.7394	0.44697	-0.0046018
1.67	18.977	1.7501	0.44864	-0.0087214
1.72	19.174	1.7746	0.46212	-0.010812
1.77	19.381	1.7859	0.46543	-0.013905
1.82	19.535	1.7673	0.47116	-0.017462
1.87	19.686	1.7776	0.47343	-0.01948
1.91	19.78	1.7699	0.46932	-0.019376
1.96	19.89	1.7661	0.47119	-0.022204
2.01	19.975	1.7496	0.4678	-0.027143
2.06	20.018	1.7638	0.46133	-0.033075
2.11	20.075	1.758	0.45841	-0.033407
2.16	20.092	1.7517	0.44413	-0.040773
2.21	20.098	1.759	0.43275	-0.043806
2.26	20.084	1.8073	0.42346	-0.050776
2.31	20.077	1.8213	0.38902	-0.060973
2.36	20.083	1.831	0.3528	-0.075647
2.41	20.102	1.883	0.32764	-0.087084
2.45	20.09	1.9294	0.29511	-0.10188
2.5	20.074	1.9911	0.24573	-0.12644
2.55	20.048	2.0315	0.20144	-0.15223
2.6	19.879	2.0771	0.15226	-0.19563
2.65	19.698	1.9884	0.10561	-0.2336
2.7	19.566	1.9337	0.074276	-0.24965
2.75	19.316	1.907	0.043612	-0.26259
2.8	19.014	1.8325	0.0054818	-0.28021
2.85	18.87	1.8162	-0.019404	-0.29372
2.9	18.551	1.6704	-0.041897	-0.29702
2.95	18.316	1.5361	-0.05436	-0.26355
2.99	18.018	1.4138	-0.067059	-0.24247
3.04	17.748	1.3115	-0.066231	-0.21586
3.09	17.466	1.1865	-0.07426	-0.19874
3.14	17.141	1.0982	-0.069405	-0.17847
3.19	16.875	1.0362	-0.059783	-0.15896
3.24	16.476	0.95031	-0.052472	-0.1299
3.29	16.18	0.88534	-0.049155	-0.11135
3.34	15.832	0.82563	-0.046871	-0.098464
3.39	15.488	0.76864	-0.042948	-0.085495
3.44	15.153	0.70255	-0.046073	-0.074828
3.49	14.754	0.65508	-0.045069	-0.065349
3.53	14.405	0.62904	-0.041275	-0.065996
3.58	14.014	0.58393	-0.03811	-0.056644
3.63	13.649	0.54939	-0.039224	-0.057736
3.68	13.271	0.52123	-0.037854	-0.050408
3.73	12.857	0.4833	-0.038471	-0.045882
3.78	12.452	0.43826	-0.032905	-0.035632
3.83	12.015	0.37927	-0.034001	-0.024121
3.88	11.615	0.33737	-0.03042	-0.016968
3.93	11.152	0.30517	-0.023271	-0.0060558
3.98	10.757	0.28215	-0.019233	0.00082897
4.03	10.329	0.2627	-0.015363	0.0047695
4.07	9.9708	0.22858	-0.013645	0.014459
4.12	9.551	0.21332	-0.0099449	0.018995
4.17	9.1644	0.2024	-0.0032396	0.033971
4.22	8.8078	0.19547	-0.0035006	0.032144
4.27	8.4269	0.17933	0.003228	0.041119
4.32	8.117	0.18067	0.002549	0.044769
4.37	7.7873	0.17982	0.004656	0.050137
4.42	7.4758	0.19195	0.0043369	0.048602
4.47	7.1036	0.20282	0.0075794	0.045752
4.52	6.8191	0.23327	0.011516	0.045575
4.57	6.5209	0.2256	0.011848	0.043529
4.61	6.2317	0.2443	0.011138	0.035168
4.66	5.9879	0.24671	0.0064864	0.026947
4.71	5.7183	0.25305	0.0094003	0.031458
4.76	5.4865	0.25885	0.0090679	0.026626
4.81	5.2971	0.25356	0.0085092	0.022537
4.86	5.0683	0.26804	0.0063152	0.018914
4.91	4.8652	0.2727	0.0056286	0.016251
4.96	4.6969	0.27657	0.0040393	0.0097598
5.01	4.5241	0.28105	0.0066229	0.0086903
5.06	4.3967	0.28902	0.0044481	0.0085116
5.11	4.286	0.29201	0.0029449	0.0038546
5.15	4.189	0.29526	0.0027741	0.0024623
5.2	4.1359	0.29721	0.0019151	0.0035869
5.25	4.1389	0.3323	0.0049304	-0.0025431
5.3	4.0828	0.31285	0.00064673	-0.003663
5.35	4.0889	0.34227	0.001518	-0.0071274
5.4	4.1253	0.34197	0.0050876	-0.0056347
5.45	4.1116	0.34026	0.0059602	-0.0023095
5.5	4.1131	0.34783	0.0067628	-0.0028712
5.55	4.1222	0.38921	0.0094985	-0.0071753
5.6	4.1071	0.36494	0.0053111	-0.0078899
5.65	4.101	0.37124	0.0071112	-0.0068026
5.69	4.1344	0.39175	0.0065299	-0.0099956
5.74	4.2132	0.40174	0.0093828	-0.011173
5.79	4.3649	0.40765	0.0084844	-0.012472
5.84	4.5316	0.42891	0.0081797	-0.01678
5.89	4.7636	0.43957	0.010523	-0.016071
5.94	4.944	0.4639	0.011806	-0.018578
5.99	5.1789	0.48302	0.013608	-0.021879
6.04	5.391	0.49509	0.017857	-0.017055
6.09	5.5956	0.51474	0.017096	-0.019042
6.14	5.8728	0.54526	0.022178	-0.020732
6.19	6.1348	0.57961	0.02964	-0.018161
6.23	6.3831	0.60469	0.031016	-0.019121
