% Time() Angle(deg) Cn Ct Cm
0	1.6845	0.089148	-0.012362	-0.017652
0.05	2.0658	0.13151	-0.0079828	-0.015185
0.1	2.415	0.15876	-0.0091701	-0.014894
0.15	2.8113	0.1927	-0.01131	-0.017532
0.2	3.2226	0.24096	-0.0062716	-0.019476
0.25	3.6095	0.27587	-0.0042872	-0.017178
0.29	4.0464	0.3122	-0.0062857	-0.020678
0.34	4.4467	0.35044	0.0012007	-0.018836
0.39	4.8818	0.39793	0.0076383	-0.01705
0.44	5.3592	0.44428	0.0097417	-0.021796
0.49	5.7728	0.48623	0.016454	-0.020547
0.54	6.1787	0.50647	0.018497	-0.016114
0.59	6.6344	0.56206	0.028426	-0.015018
0.64	7.0642	0.6261	0.037392	-0.016808
0.69	7.5045	0.66192	0.04432	-0.016062
0.74	7.9582	0.69927	0.052731	-0.015326
0.79	8.374	0.74803	0.064363	-0.013353
0.83	8.7927	0.79126	0.073904	-0.010606
0.88	9.1916	0.84286	0.084462	-0.013955
0.93	9.5888	0.87869	0.094293	-0.013074
0.98	9.9769	0.90937	0.10471	-0.0073238
1.03	10.348	0.95863	0.11725	-0.0091331
1.08	10.716	0.98895	0.12964	-0.0071934
1.13	11.041	1.0135	0.13518	-0.007167
1.18	11.332	1.0346	0.14143	-0.0077752
1.23	11.671	1.0809	0.15823	-0.0031697
1.28	11.971	1.1118	0.17058	-0.0034506
1.33	12.238	1.1349	0.17758	-0.0052684
1.37	12.482	1.1529	0.1878	-0.0028009
1.42	12.708	1.1902	0.20147	-0.0013068
1.47	12.934	1.1941	0.20717	-0.00074869
1.52	13.113	1.2105	0.21637	0.00029
1.57	13.289	1.233	0.22428	0.0060413
1.62	13.465	1.2371	0.22636	0.0043339
1.67	13.583	1.2659	0.2412	0.0053257
1.72	13.7	1.2733	0.24637	0.008801
1.77	13.813	1.2789	0.24933	0.0083012
1.82	13.893	1.2704	0.25262	0.0081235
1.87	13.903	1.2804	0.25781	0.010939
1.91	13.953	1.2981	0.26309	0.0086511
1.96	14.016	1.2907	0.26484	0.011534
2.01	13.99	1.2886	0.26339	0.0097683
2.06	13.999	1.2928	0.26814	0.011757
2.11	13.975	1.2988	0.26896	0.015593
2.16	13.968	1.2977	0.27015	0.016779
2.21	13.977	1.2987	0.26913	0.01478
2.26	13.974	1.2729	0.26388	0.013461
2.31	13.956	1.2507	0.26122	0.018731
2.36	13.963	1.2382	0.25974	0.019812
2.41	13.799	1.2415	0.25716	0.023618
2.45	13.653	1.1986	0.24625	0.023704
2.5	13.428	1.1868	0.2379	0.02323
2.55	13.191	1.1772	0.23544	0.023892
2.6	12.961	1.1549	0.22905	0.026414
2.65	12.691	1.1249	0.21572	0.019505
2.7	12.449	1.1039	0.20501	0.021503
2.75	12.131	1.0758	0.19666	0.021783
2.8	11.841	1.0617	0.19207	0.023837
2.85	11.531	1.051	0.18392	0.024213
2.9	11.214	1.0154	0.17514	0.023087
2.95	10.92	0.98003	0.16349	0.02219
2.99	10.572	0.9673	0.15748	0.024454
3.04	10.214	0.93275	0.14816	0.023114
3.09	9.8289	0.91121	0.13899	0.022653
3.14	9.4559	0.88552	0.12935	0.020671
3.19	9.0798	0.85095	0.12082	0.020358
3.24	8.7232	0.8344	0.11454	0.021475
3.29	8.3256	0.79978	0.10474	0.019182
3.34	7.9204	0.75434	0.090957	0.013801
3.39	7.5363	0.7054	0.076961	0.013821
3.44	7.096	0.69262	0.076051	0.016111
3.49	6.7525	0.65775	0.066014	0.012892
3.53	6.2953	0.62643	0.058259	0.012295
3.58	5.8864	0.57348	0.047889	0.010366
3.63	5.491	0.53788	0.040668	0.010279
3.68	5.091	0.49642	0.034714	0.012045
3.73	4.6529	0.4651	0.028693	0.0075948
3.78	4.1965	0.41376	0.021098	0.0083972
3.83	3.828	0.36316	0.011555	0.0097305
3.88	3.4487	0.32971	0.012022	0.009597
3.93	3.0086	0.299	0.0077979	0.0079869
3.98	2.6322	0.26442	0.0043736	0.008923
4.03	2.2556	0.21267	-0.0035939	0.0073122
4.07	1.8516	0.17722	-0.0053911	0.0078613
4.12	1.4946	0.15177	-0.0063129	0.0045178
4.17	1.1815	0.11975	-0.0071756	0.0072694
4.22	0.80917	0.068818	-0.0090252	0.006659
4.27	0.54313	0.036881	-0.011216	0.0073784
4.32	0.19189	0.015283	-0.012746	0.0035766
4.37	-0.1062	-0.015654	-0.011212	0.0018057
4.42	-0.36632	-0.049062	-0.014457	0.0025998
4.47	-0.66604	-0.065087	-0.011947	0.0025947
4.52	-0.92473	-0.10829	-0.011519	0.0048019
4.57	-1.1591	-0.11848	-0.0085284	0.0039993
4.61	-1.389	-0.14902	-0.007784	0.0011964
4.66	-1.6204	-0.18226	-0.0096373	0.0038743
4.71	-1.7878	-0.20344	-0.010782	0.00027361
4.76	-1.9447	-0.21295	-0.0072033	-0.0012266
4.81	-2.0665	-0.21321	-0.0016083	-0.0020796
4.86	-2.196	-0.23005	-0.0029898	-0.0050899
4.91	-2.3209	-0.2638	-0.0058198	-0.00648
4.96	-2.4229	-0.26263	-0.00063889	-0.0044037
5.01	-2.4808	-0.26121	0.0014777	-0.0046418
5.06	-2.5189	-0.28686	0.00083223	-0.0052151
5.11	-2.56	-0.28688	0.0018293	-0.0062694
5.15	-2.5859	-0.30374	-2.3766e-05	-0.01018
5.2	-2.6027	-0.29974	0.003235	-0.0054916
5.25	-2.5539	-0.30149	0.0014796	-0.0098751
5.3	-2.5661	-0.28889	0.0051363	-0.0079737
5.35	-2.56	-0.31076	0.0006652	-0.0089576
5.4	-2.5768	-0.30929	0.0044352	-0.006804
5.45	-2.5615	-0.30169	0.0046659	-0.010587
5.5	-2.5585	-0.28391	0.0055132	-0.011218
5.55	-2.426	-0.27808	0.002402	-0.014982
5.6	-2.2919	-0.26898	0.00089162	-0.011051
5.65	-2.1396	-0.25515	0.0016687	-0.011236
5.69	-1.9371	-0.22871	0.0016368	-0.014444
5.74	-1.733	-0.21303	-0.0014667	-0.015431
5.79	-1.4986	-0.19622	-0.0055113	-0.018399
5.84	-1.2383	-0.17417	-0.0035973	-0.01548
5.89	-0.95669	-0.14912	-0.0071925	-0.019076
5.94	-0.66604	-0.1189	-0.0061823	-0.014931
5.99	-0.31308	-0.10223	-0.0095888	-0.015226
6.04	0.026117	-0.075344	-0.012658	-0.015351
6.09	0.3333	-0.040392	-0.0096135	-0.015517
6.14	0.65715	0.0030447	-0.0094922	-0.018014
6.19	1.0356	0.023056	-0.0090718	-0.014207
6.23	1.3958	0.0613	-0.013768	-0.0184
