% Time() Angle(deg) Cn Ct Cm
0	7.3169	0.69904	0.071298	0.0045585
0.05	7.6709	0.71542	0.077587	0.0086543
0.1	8.0399	0.75261	0.086513	0.0073742
0.15	8.4239	0.79182	0.093402	0.0046725
0.2	8.8274	0.82142	0.10263	0.0089541
0.25	9.2263	0.86296	0.11368	0.0087905
0.29	9.6205	0.91506	0.12745	0.0089554
0.34	10.037	0.94925	0.136	0.0071235
0.39	10.416	0.97311	0.14811	0.012183
0.44	10.863	1.0134	0.16058	0.01413
0.49	11.225	1.0414	0.16879	0.011477
0.54	11.633	1.0929	0.18601	0.014595
0.59	11.982	1.1261	0.19968	0.017132
0.64	12.342	1.1525	0.20924	0.013392
0.69	12.703	1.1929	0.22502	0.018808
0.74	13.027	1.2206	0.23507	0.020632
0.79	13.397	1.2302	0.24574	0.020599
0.83	13.707	1.258	0.25948	0.023296
0.88	13.983	1.2922	0.26987	0.020165
0.93	14.29	1.2951	0.27985	0.023799
0.98	14.547	1.3215	0.2919	0.023486
1.03	14.808	1.3481	0.30277	0.024089
1.08	15.034	1.3496	0.30607	0.025674
1.13	15.253	1.342	0.31056	0.024472
1.18	15.459	1.3527	0.31282	0.024973
1.23	15.603	1.3513	0.3151	0.020533
1.28	15.779	1.3687	0.32003	0.018746
1.33	15.929	1.3778	0.3203	0.014614
1.37	16.029	1.3473	0.31677	0.013432
1.42	16.167	1.3787	0.32065	0.0055911
1.47	16.218	1.3619	0.31224	-0.00078458
1.52	16.306	1.3752	0.30255	-0.012603
1.57	16.366	1.3851	0.26978	-0.034209
1.62	16.398	1.3871	0.19596	-0.068527
1.67	16.411	1.3516	0.12118	-0.11185
1.72	16.437	1.3346	0.061794	-0.1634
1.77	16.428	1.2381	0.023347	-0.153
1.82	16.411	1.1658	0.013004	-0.12757
1.87	16.405	1.1585	-0.014181	-0.15347
1.91	16.402	1.0749	-0.027642	-0.16181
1.96	16.404	0.98427	-0.035583	-0.14824
2.01	16.426	0.87976	-0.036425	-0.124
2.06	16.329	0.80257	-0.037511	-0.10407
2.11	16.143	0.78815	-0.030528	-0.10261
2.16	15.97	0.70242	-0.036237	-0.079001
2.21	15.757	0.714	-0.039767	-0.099568
2.26	15.542	0.70149	-0.039057	-0.087216
2.31	15.301	0.70158	-0.040193	-0.089703
2.36	15.076	0.65668	-0.025946	-0.073788
2.41	14.817	0.68351	-0.017648	-0.062488
2.45	14.556	0.68342	-0.017351	-0.069972
2.5	14.267	0.70902	-0.023229	-0.074397
2.55	13.944	0.68553	-0.016489	-0.064188
2.6	13.665	0.65341	0.00084253	-0.046264
2.65	13.36	0.6506	0.0076485	-0.040872
2.7	13.017	0.69855	0.043788	-0.023018
2.75	12.687	0.75172	0.05468	-0.024279
2.8	12.328	0.7633	0.064087	-0.01561
2.85	11.954	0.77208	0.076377	-0.012994
2.9	11.623	0.74918	0.086056	0.010823
2.95	11.22	0.77893	0.096531	0.010771
2.99	10.866	0.81892	0.10914	0.012052
3.04	10.489	0.80699	0.11095	0.018005
3.09	10.11	0.8067	0.11773	0.024266
3.14	9.7005	0.81833	0.11799	0.025423
3.19	9.3139	0.81926	0.11341	0.022115
3.24	8.909	0.8023	0.10943	0.022499
3.29	8.5312	0.78224	0.10149	0.017535
3.34	8.1412	0.74969	0.092765	0.014215
3.39	7.7526	0.72891	0.090403	0.016943
3.44	7.3714	0.70241	0.083418	0.017967
3.49	6.9553	0.65899	0.071988	0.012445
3.53	6.5375	0.61889	0.067107	0.018564
3.58	6.1529	0.57539	0.054648	0.013375
3.63	5.7834	0.52293	0.045586	0.01095
3.68	5.438	0.49682	0.041284	0.011419
3.73	5.0395	0.45638	0.035624	0.010168
3.78	4.6984	0.41536	0.029104	0.011645
3.83	4.3633	0.38468	0.024939	0.0098693
3.88	4.0434	0.34674	0.02273	0.012676
3.93	3.7051	0.31501	0.017173	0.012655
3.98	3.4305	0.29858	0.017309	0.0080066
4.03	3.1407	0.25099	0.011954	0.011524
4.07	2.828	0.22609	0.0069782	0.0086045
4.12	2.6003	0.20227	0.0067521	0.0099202
4.17	2.3588	0.17889	0.0069435	0.0082772
4.22	2.1295	0.15255	0.0034567	0.0055006
4.27	1.8865	0.1346	0.004258	0.0083959
4.32	1.7407	0.11991	0.0028423	0.0093037
4.37	1.5174	0.079472	-0.00078155	0.0074698
4.42	1.3578	0.073655	0.0034142	0.0077513
4.47	1.2119	0.048287	0.0016394	0.0082137
4.52	1.0296	0.035319	0.0002229	0.0078835
4.57	0.94749	0.02946	0.002545	0.0062546
4.61	0.84717	0.026391	0.00090983	0.0041841
4.66	0.72404	0.0043053	-0.0018984	0.003814
4.71	0.69516	-0.0035125	-0.00031748	0.0060605
4.76	0.62371	-0.013313	-0.00096961	0.0065836
4.81	0.60394	-0.035397	-0.0043989	0.0041271
4.86	0.59938	-0.01664	0.0012622	0.0051965
4.91	0.58114	-0.014183	0.00046578	0.0063933
4.96	0.58114	-0.027985	0.00091212	0.0053205
5.01	0.60698	-0.014143	0.0018769	0.0039095
5.06	0.6009	-0.030919	-0.0021073	0.0016184
5.11	0.59178	-0.0049879	0.0045272	0.0056071
5.15	0.59634	0.0012418	0.00022136	0.00053214
5.2	0.62523	-0.0021151	-0.0014318	0.0031778
5.25	0.78485	0.02503	0.00041504	0.00238
5.3	0.96269	0.037102	-0.00033299	0.0031089
5.35	1.1755	0.055512	0.00093498	0.0035109
5.4	1.3593	0.068649	0.0042824	0.0061048
5.45	1.5705	0.09967	0.00067293	0.00041208
5.5	1.7984	0.10807	0.0025384	0.0028714
5.55	2.0247	0.13566	0.0019251	0.0037151
5.6	2.3148	0.16459	0.0032772	0.0036621
5.65	2.5608	0.192	0.0067839	0.0036782
5.69	2.7991	0.21711	0.0069822	0.0055965
5.74	3.1437	0.24196	0.0064139	-0.00014013
5.79	3.4654	0.27097	0.011957	0.0044997
5.84	3.7506	0.31507	0.013557	0.0010348
5.89	4.0949	0.33375	0.016853	0.006625
5.94	4.4301	0.3774	0.021109	0.0034823
5.99	4.8333	0.42	0.026928	0.0020398
6.04	5.2168	0.44709	0.030358	0.0045587
6.09	5.5728	0.48695	0.035659	0.0056433
6.14	5.9667	0.53584	0.041365	0.0029493
6.19	6.3225	0.56401	0.049899	0.004679
6.23	6.7071	0.61629	0.059456	0.0049271
