% Time() Angle(deg) Cn Ct Cm
0	6.8902	0.62992	0.043605	-0.018188
0.05	7.1293	0.65409	0.045144	-0.020618
0.1	7.4031	0.64985	0.044793	-0.015408
0.15	7.6542	0.69875	0.048987	-0.022681
0.2	7.9492	0.73517	0.063485	-0.017136
0.25	8.2334	0.76377	0.068078	-0.017445
0.29	8.5101	0.79343	0.072876	-0.018256
0.34	8.8093	0.80646	0.072717	-0.021532
0.39	9.1206	0.85482	0.081294	-0.017516
0.44	9.4212	0.91128	0.096618	-0.018856
0.49	9.7806	0.95092	0.10229	-0.020822
0.54	10.128	0.99862	0.10976	-0.025453
0.59	10.47	1.0344	0.11551	-0.027389
0.64	10.837	1.1081	0.12745	-0.02901
0.69	11.161	1.1722	0.14754	-0.024248
0.74	11.579	1.223	0.1571	-0.02771
0.79	11.974	1.2687	0.16937	-0.029709
0.83	12.366	1.3285	0.18044	-0.033027
0.88	12.759	1.3567	0.18945	-0.029683
0.93	13.114	1.4028	0.20999	-0.024721
0.98	13.558	1.4655	0.22924	-0.025078
1.03	13.995	1.501	0.23873	-0.028404
1.08	14.43	1.5395	0.25788	-0.026929
1.13	14.777	1.5674	0.26843	-0.025282
1.18	15.168	1.5684	0.28097	-0.022442
1.23	15.57	1.6145	0.29746	-0.023532
1.28	15.98	1.6202	0.31054	-0.020232
1.33	16.353	1.6075	0.31681	-0.026959
1.37	16.752	1.6266	0.33497	-0.022577
1.42	17.123	1.6389	0.34457	-0.018108
1.47	17.495	1.6501	0.36198	-0.01881
1.52	17.859	1.6593	0.37248	-0.018197
1.57	18.241	1.6555	0.38231	-0.015886
1.62	18.589	1.6558	0.38824	-0.016367
1.67	18.891	1.6523	0.3934	-0.021759
1.72	19.186	1.6533	0.41172	-0.013339
1.77	19.498	1.6613	0.42088	-0.015225
1.82	19.825	1.6844	0.43508	-0.014619
1.87	20.078	1.699	0.44283	-0.017283
1.91	20.328	1.7167	0.45391	-0.01596
1.96	20.584	1.7321	0.46939	-0.013384
2.01	20.785	1.7655	0.4854	-0.017173
2.06	20.971	1.783	0.49613	-0.0167
2.11	21.162	1.8074	0.50783	-0.01725
2.16	21.283	1.8296	0.5185	-0.019973
2.21	21.37	1.8503	0.53031	-0.01598
2.26	21.453	1.8997	0.53865	-0.022075
2.31	21.538	1.9039	0.54286	-0.018682
2.36	21.556	1.9231	0.54094	-0.020793
2.4	21.544	1.9499	0.53515	-0.023869
2.45	21.532	1.9689	0.52315	-0.039357
2.5	21.543	2.0032	0.51633	-0.033704
2.55	21.531	2.0735	0.48823	-0.040981
2.6	21.514	2.1082	0.46093	-0.039835
2.65	21.531	2.1153	0.4058	-0.049808
2.7	21.407	2.1769	0.35449	-0.058625
2.75	21.24	2.2051	0.31336	-0.076852
2.8	21.132	2.1929	0.26019	-0.09116
2.85	21.02	2.2407	0.23718	-0.11507
2.9	20.811	2.1999	0.18457	-0.14412
2.94	20.576	2.1656	0.16385	-0.17412
2.99	20.346	2.2026	0.14945	-0.19235
3.04	20.156	2.1925	0.12969	-0.22356
3.09	19.885	2.1837	0.10859	-0.25515
3.14	19.592	2.0811	0.058902	-0.29312
3.19	19.279	2.0606	0.042098	-0.30709
3.24	19.005	2.0205	0.028746	-0.31968
3.29	18.704	1.9023	0.0049954	-0.33053
3.34	18.407	1.7561	-0.020987	-0.31476
3.39	18.046	1.6271	-0.036946	-0.28553
3.44	17.721	1.4878	-0.049939	-0.2557
3.48	17.363	1.3781	-0.060797	-0.24221
3.53	17.055	1.2969	-0.073719	-0.23594
3.58	16.676	1.1692	-0.079112	-0.21247
3.63	16.324	1.0997	-0.08142	-0.19398
3.68	15.983	0.98547	-0.078107	-0.1637
3.73	15.641	0.90353	-0.077718	-0.14287
3.78	15.274	0.88988	-0.059373	-0.12933
3.83	14.912	0.82855	-0.050435	-0.10925
3.88	14.565	0.80421	-0.051164	-0.10867
3.93	14.174	0.738	-0.052873	-0.091684
3.98	13.79	0.69622	-0.056567	-0.090951
4.02	13.443	0.64247	-0.041515	-0.064064
4.07	13.074	0.59218	-0.040471	-0.050313
4.12	12.687	0.5527	-0.034095	-0.042042
4.17	12.325	0.51144	-0.031975	-0.037955
4.22	11.923	0.47377	-0.028495	-0.028632
4.27	11.547	0.42471	-0.027599	-0.022186
4.32	11.175	0.41772	-0.0201	-0.02219
4.37	10.872	0.38237	-0.016535	-0.01708
4.42	10.498	0.35354	-0.010714	-0.014452
4.47	10.123	0.30077	-0.012425	-0.0047692
4.52	9.7715	0.269	-0.0081957	0.0041518
4.56	9.4438	0.26074	0.0019675	0.016332
4.61	9.0511	0.23416	0.00038179	0.016048
4.66	8.7398	0.21377	0.0023734	0.027361
4.71	8.4027	0.16498	-0.00044103	0.032629
4.76	8.0716	0.16426	0.0058541	0.04194
4.81	7.7828	0.16283	0.0088417	0.04156
4.86	7.4773	0.15704	0.008248	0.038571
4.91	7.1913	0.14868	0.0056082	0.042445
4.96	6.8993	0.14043	0.0059576	0.046807
5.01	6.6541	0.13216	0.0036253	0.042347
5.06	6.3907	0.16668	0.015699	0.048511
5.1	6.1953	0.1724	0.012434	0.04604
5.15	6.0288	0.19366	0.012509	0.040771
5.2	5.8319	0.19002	0.0089274	0.043545
5.25	5.6546	0.2114	0.0098292	0.038469
5.3	5.5425	0.23636	0.014912	0.035635
5.35	5.4653	0.28613	0.017422	0.027862
5.4	5.3865	0.29433	0.016601	0.026791
5.45	5.335	0.31008	0.013561	0.019406
5.5	5.3016	0.32199	0.01281	0.021296
5.55	5.2774	0.35411	0.019032	0.020284
5.6	5.3077	0.393	0.018609	0.0088658
5.64	5.3016	0.38832	0.019091	0.008601
5.69	5.3198	0.42835	0.02503	0.0040753
5.74	5.3153	0.40955	0.016612	-0.0018335
5.79	5.3137	0.42171	0.022338	0.0035659
5.84	5.3713	0.44967	0.025184	-0.00057514
5.89	5.391	0.46963	0.024486	-0.0044326
5.94	5.5516	0.47576	0.025183	-0.0085348
5.99	5.7289	0.49395	0.02304	-0.011863
6.04	5.844	0.51877	0.024077	-0.015687
6.09	5.9894	0.54372	0.031259	-0.014002
6.14	6.2105	0.56474	0.035873	-0.013937
6.18	6.3967	0.57815	0.034937	-0.017815
6.23	6.6374	0.58288	0.033971	-0.018144
