% Time() Angle(deg) Cn Ct Cm
0	19.117	0.749	-0.06847	-0.1124
0.05	19.562	0.69575	-0.064933	-0.094152
0.1	19.97	0.71266	-0.068411	-0.098332
0.15	20.374	0.71192	-0.06737	-0.10311
0.2	20.74	0.74113	-0.06548	-0.10496
0.25	21.165	0.75604	-0.069076	-0.10656
0.29	21.541	0.78298	-0.067735	-0.10806
0.34	21.939	0.779	-0.065758	-0.1091
0.39	22.315	0.7984	-0.061811	-0.10695
0.44	22.673	0.79531	-0.068844	-0.11758
0.49	23.056	0.8006	-0.065114	-0.11018
0.54	23.39	0.8074	-0.068437	-0.11345
0.59	23.769	0.83831	-0.066985	-0.1201
0.64	24.105	0.84864	-0.064234	-0.11873
0.69	24.427	0.85946	-0.066381	-0.12128
0.74	24.732	0.88357	-0.065413	-0.12743
0.79	25.03	0.88691	-0.062146	-0.1243
0.83	25.32	0.89917	-0.067003	-0.12919
0.88	25.558	0.90395	-0.064179	-0.12928
0.93	25.805	0.92999	-0.067452	-0.13894
0.98	26.016	0.94127	-0.068133	-0.14296
1.03	26.273	0.9812	-0.065492	-0.1451
1.08	26.452	1.015	-0.060664	-0.15195
1.13	26.666	1.0287	-0.065438	-0.15693
1.18	26.79	1.0296	-0.063205	-0.15879
1.23	26.911	1.0806	-0.056599	-0.16212
1.28	27.054	1.0862	-0.057567	-0.16372
1.33	27.168	1.0553	-0.058608	-0.16072
1.37	27.288	1.0699	-0.059424	-0.16252
1.42	27.339	1.047	-0.063065	-0.15845
1.47	27.389	1.0789	-0.066764	-0.17158
1.52	27.499	1.1246	-0.064188	-0.18158
1.57	27.481	1.1	-0.063068	-0.16975
1.62	27.486	1.0852	-0.065224	-0.17372
1.67	27.487	1.1165	-0.063909	-0.17848
1.72	27.526	1.141	-0.056825	-0.18093
1.77	27.458	1.1204	-0.060051	-0.17215
1.82	27.467	1.0845	-0.058504	-0.16638
1.87	27.45	1.0473	-0.061204	-0.16066
1.91	27.317	1.0552	-0.066626	-0.17116
1.96	27.115	1.0719	-0.062093	-0.16856
2.01	26.858	1.05	-0.062299	-0.16252
2.06	26.672	1.0436	-0.06453	-0.16012
2.11	26.493	1.0434	-0.06337	-0.16121
2.16	26.247	1.0398	-0.059488	-0.15782
2.21	26.028	1.0022	-0.06717	-0.15332
2.26	25.849	0.98711	-0.0639	-0.15509
2.31	25.628	0.98308	-0.060667	-0.14176
2.36	25.394	0.95992	-0.067619	-0.14584
2.41	25.155	0.94535	-0.064354	-0.14048
2.45	24.903	0.93069	-0.064973	-0.13998
2.5	24.582	0.90623	-0.066867	-0.13588
2.55	24.271	0.85719	-0.070409	-0.13026
2.6	23.956	0.85126	-0.068428	-0.1212
2.65	23.612	0.8416	-0.068859	-0.1234
2.7	23.28	0.84368	-0.063728	-0.11799
2.75	22.946	0.8321	-0.064845	-0.12289
2.8	22.55	0.79425	-0.070509	-0.11424
2.85	22.186	0.78224	-0.066809	-0.11128
2.9	21.803	0.77636	-0.069739	-0.11042
2.95	21.434	0.71791	-0.071019	-0.1026
2.99	21.083	0.71688	-0.069779	-0.10211
3.04	20.681	0.67493	-0.067078	-0.09264
3.09	20.299	0.68211	-0.069224	-0.095256
3.14	19.911	0.69063	-0.070406	-0.098817
3.19	19.539	0.64981	-0.0666	-0.085768
3.24	19.156	0.62492	-0.065141	-0.078347
3.29	18.815	0.62308	-0.067883	-0.084853
3.34	18.419	0.60336	-0.067264	-0.081926
3.39	18.04	0.59695	-0.065098	-0.080423
3.44	17.657	0.57798	-0.065634	-0.077154
3.49	17.285	0.59002	-0.065745	-0.079697
3.53	16.892	0.58742	-0.062271	-0.07632
3.58	16.492	0.65407	-0.061845	-0.093502
3.63	16.128	0.62466	-0.054363	-0.082444
3.68	15.728	0.60919	-0.054045	-0.075426
3.73	15.39	0.63176	-0.049015	-0.079727
3.78	15.037	0.64085	-0.042089	-0.080396
3.83	14.693	0.66241	-0.044795	-0.084163
3.88	14.407	0.67597	-0.038631	-0.087424
3.93	14.096	0.74454	-0.023563	-0.096227
3.98	13.817	0.75073	-0.0096977	-0.069527
4.03	13.574	0.78823	0.0074614	-0.065695
4.07	13.342	0.8404	0.018217	-0.06399
4.12	13.096	0.85748	0.02436	-0.065577
4.17	12.855	0.87686	0.013044	-0.079047
4.22	12.681	0.86198	0.016138	-0.079869
4.27	12.458	0.84379	0.032951	-0.063356
4.32	12.307	0.85271	0.062272	-0.04287
4.37	12.187	0.92204	0.092073	-0.023937
4.42	12.055	0.94359	0.13018	0.0019025
4.47	11.908	0.95862	0.13368	0.0019753
4.52	11.814	0.99923	0.14211	0.0042565
4.57	11.749	1.0214	0.15492	0.0048296
4.61	11.638	1.0412	0.15748	0.0043911
4.66	11.612	1.0523	0.16276	0.0045264
4.71	11.546	1.051	0.16713	0.0082194
4.76	11.528	1.0364	0.15849	0.003646
4.81	11.523	1.0565	0.16292	0.00567
4.86	11.526	1.0742	0.17048	0.0069218
4.91	11.543	1.0615	0.16958	0.0065723
4.96	11.549	1.0695	0.17107	0.0078139
5.01	11.559	1.0628	0.16925	0.0047436
5.06	11.547	1.0836	0.17332	0.007379
5.11	11.715	1.0912	0.17845	0.0067001
5.15	11.909	1.1228	0.18921	0.0076991
5.2	12.11	1.1319	0.19716	0.0095286
5.25	12.303	1.1689	0.20324	0.0060819
5.3	12.533	1.1675	0.20647	0.0075701
5.35	12.718	1.1726	0.20838	0.0081242
5.4	12.944	1.1758	0.21751	0.0085928
5.45	13.146	1.206	0.23142	0.015007
5.5	13.412	1.2289	0.23492	0.0089751
5.55	13.634	1.2358	0.23818	0.0088483
5.6	13.911	1.2602	0.25243	0.013053
5.65	14.208	1.2779	0.26176	0.015032
5.69	14.506	1.2783	0.26189	0.01023
5.74	14.825	1.3129	0.27425	0.011865
5.79	15.135	1.3236	0.28436	0.012915
5.84	15.462	1.3172	0.28767	0.0063441
5.89	15.823	1.3443	0.2947	-0.0013681
5.94	16.141	1.3601	0.28505	-0.019176
5.99	16.465	1.4076	0.19557	-0.090022
6.04	16.829	1.3604	0.035174	-0.15686
6.09	17.192	1.1737	-0.042562	-0.19732
6.14	17.603	0.98061	-0.0546	-0.15068
6.19	17.977	0.91052	-0.065216	-0.15216
6.23	18.425	0.80062	-0.065907	-0.12397
