% Time() Angle(deg) Cn Ct Cm
0	11.152	1.0874	0.16385	0.0020976
0.05	11.547	1.1105	0.17428	0.0014974
0.1	11.953	1.1452	0.18658	0.0015984
0.15	12.343	1.1805	0.20012	0.0019654
0.2	12.721	1.2196	0.21483	0.0033679
0.25	13.126	1.2512	0.22633	0.0037754
0.29	13.552	1.3004	0.24222	0.00010563
0.34	13.933	1.3157	0.25649	0.0046757
0.39	14.369	1.343	0.26835	0.0064559
0.44	14.801	1.3991	0.28732	0.0046771
0.49	15.207	1.4192	0.30307	0.0053403
0.54	15.608	1.446	0.31633	0.0039129
0.59	16.007	1.4815	0.33459	0.0024449
0.64	16.381	1.5102	0.34998	0.0012835
0.69	16.82	1.5317	0.36454	0.0028694
0.74	17.199	1.5729	0.38488	0.0043888
0.79	17.585	1.6158	0.39644	-0.001861
0.83	17.925	1.6204	0.4015	-0.0063536
0.88	18.252	1.6431	0.40743	-0.018519
0.93	18.568	1.6656	0.40907	-0.027904
0.98	18.87	1.6793	0.4048	-0.036315
1.03	19.173	1.7306	0.39879	-0.055551
1.08	19.481	1.8183	0.3704	-0.076477
1.13	19.756	1.8697	0.30685	-0.10933
1.18	19.999	1.9705	0.21088	-0.16791
1.23	20.216	2.0549	0.12288	-0.25972
1.28	20.407	2.0299	0.042147	-0.31644
1.33	20.563	1.884	-0.0098248	-0.3118
1.37	20.755	1.6619	-0.058809	-0.30592
1.42	20.93	1.4784	-0.063033	-0.26081
1.47	21.134	1.4123	-0.059166	-0.25444
1.52	21.307	1.2885	-0.050989	-0.20589
1.57	21.471	1.1934	-0.044741	-0.1739
1.62	21.547	1.1875	-0.036945	-0.17837
1.67	21.62	1.1671	-0.046087	-0.19298
1.72	21.622	1.1267	-0.053422	-0.19251
1.77	21.667	1.0352	-0.057446	-0.17027
1.82	21.719	1.0107	-0.055951	-0.15853
1.87	21.735	1.0027	-0.060477	-0.15787
1.91	21.782	0.98329	-0.058801	-0.14743
1.96	21.833	0.95416	-0.059474	-0.14096
2.01	21.755	0.92799	-0.056199	-0.1299
2.06	21.782	0.8687	-0.058575	-0.12516
2.11	21.78	0.85117	-0.055705	-0.12005
2.16	21.755	0.81554	-0.059284	-0.11335
2.21	21.613	0.78886	-0.056868	-0.10605
2.26	21.471	0.75687	-0.057777	-0.096304
2.31	21.269	0.75895	-0.057285	-0.095046
2.36	21.128	0.74001	-0.0562	-0.092441
2.41	20.857	0.74701	-0.053745	-0.087367
2.45	20.633	0.71854	-0.060317	-0.088692
2.5	20.368	0.69514	-0.053384	-0.079696
2.55	20.08	0.65453	-0.054115	-0.075678
2.6	19.827	0.61784	-0.056618	-0.066593
2.65	19.532	0.61352	-0.053429	-0.070251
2.7	19.228	0.60024	-0.051689	-0.065875
2.75	18.945	0.58948	-0.052689	-0.062218
2.8	18.62	0.57677	-0.053224	-0.060399
2.85	18.264	0.58838	-0.051429	-0.062031
2.9	17.887	0.57429	-0.05565	-0.065607
2.95	17.588	0.54114	-0.051913	-0.056082
2.99	17.213	0.52626	-0.048772	-0.048953
3.04	16.841	0.50287	-0.051019	-0.048509
3.09	16.404	0.50899	-0.045786	-0.046194
3.14	16.065	0.49725	-0.046538	-0.047132
3.19	15.649	0.48216	-0.044732	-0.040367
3.24	15.276	0.48442	-0.043162	-0.044121
3.29	14.881	0.4677	-0.037252	-0.038917
3.34	14.512	0.40922	-0.038845	-0.029459
3.39	14.106	0.40382	-0.022897	-0.011674
3.44	13.735	0.39546	-0.0098231	0.005753
3.49	13.342	0.37072	0.00021233	0.0083936
3.53	12.959	0.41587	0.017359	0.011077
3.58	12.563	0.41422	0.034648	0.022933
3.63	12.184	0.43071	0.0476	0.039005
3.68	11.787	0.48905	0.061694	0.042877
3.73	11.446	0.56818	0.074069	0.037504
3.78	11.033	0.62767	0.082808	0.034123
3.83	10.665	0.66234	0.085149	0.032912
3.88	10.298	0.69881	0.091332	0.032098
3.93	9.9482	0.72055	0.094516	0.03231
3.98	9.5526	0.74498	0.095497	0.028364
4.03	9.2641	0.74304	0.092202	0.019287
4.07	8.9136	0.74843	0.08764	0.014262
4.12	8.6264	0.74437	0.084718	0.012709
4.17	8.3317	0.7383	0.086924	0.014991
4.22	8.0293	0.73412	0.080522	0.0086567
4.27	7.7858	0.74137	0.081524	0.0074207
4.32	7.5151	0.71902	0.078353	0.011351
4.37	7.2519	0.69267	0.070627	0.0090129
4.42	7.0279	0.68121	0.067086	0.005793
4.47	6.8206	0.67861	0.067601	0.0084097
4.52	6.6374	0.6479	0.060617	0.009351
4.57	6.5042	0.6209	0.056652	0.0086308
4.61	6.3377	0.60886	0.052736	0.0041269
4.66	6.1923	0.60926	0.048373	0.0011023
4.71	6.0621	0.58425	0.048077	0.0042883
4.76	5.9788	0.58603	0.047467	0.0033646
4.81	5.9	0.5636	0.043292	0.00059464
4.86	5.8197	0.57009	0.044103	0.00049755
4.91	5.7743	0.5589	0.043347	0.004397
4.96	5.7364	0.55444	0.039226	0.00037537
5.01	5.7107	0.55456	0.040609	-0.00098924
5.06	5.7046	0.56549	0.041104	-0.0013713
5.11	5.7092	0.54585	0.03967	0.0016804
5.15	5.7319	0.56397	0.044271	0.0016227
5.2	5.7183	0.55887	0.039739	-0.00070835
5.25	5.7228	0.55377	0.037444	-0.00029367
5.3	5.7167	0.56916	0.040813	-0.0021977
5.35	5.7213	0.57605	0.039965	-0.0040046
5.4	5.7895	0.57334	0.042714	-0.0030408
5.45	5.9727	0.6074	0.046392	-0.0040339
5.5	6.1696	0.60733	0.047092	-0.0024424
5.55	6.3301	0.61518	0.046343	-0.0037392
5.6	6.5996	0.67417	0.05754	-0.0032434
5.65	6.7752	0.6806	0.059695	-0.0038327
5.69	7.0521	0.70219	0.063668	-0.0024924
5.74	7.3351	0.74209	0.071778	-0.002438
5.79	7.621	0.76183	0.07515	-0.0011712
5.84	7.8766	0.79706	0.085144	-0.00099928
5.89	8.2032	0.82203	0.088495	-0.0034753
5.94	8.5388	0.83885	0.091746	-0.0081385
5.99	8.8667	0.88264	0.10265	-0.0059049
6.04	9.2218	0.92468	0.11447	-0.0021955
6.09	9.5858	0.95056	0.12208	-0.0016311
6.14	9.9361	0.99297	0.1359	0.0035437
6.19	10.313	1.0191	0.13962	-0.0045155
6.23	10.703	1.0547	0.15174	-0.0027658
