% Time() Angle(deg) Cn Ct Cm
0	18.279	1.5799	0.24583	-0.10041
0.05	18.596	1.6073	0.13975	-0.17462
0.1	18.939	1.5367	0.01358	-0.2368
0.15	19.321	1.3156	-0.029756	-0.2076
0.2	19.721	1.1411	-0.046708	-0.17478
0.25	20.147	1.0504	-0.044148	-0.15435
0.29	20.588	1.0464	-0.042035	-0.16151
0.34	21.004	0.96012	-0.050764	-0.14625
0.39	21.429	0.9016	-0.051304	-0.13008
0.44	21.864	0.92254	-0.044641	-0.12495
0.49	22.228	0.90355	-0.050437	-0.12936
0.54	22.597	0.86252	-0.050112	-0.12134
0.59	23.026	0.88476	-0.044868	-0.1188
0.64	23.354	0.88033	-0.049976	-0.11801
0.69	23.709	0.89899	-0.046731	-0.12138
0.74	24.046	0.88734	-0.047252	-0.11553
0.79	24.385	0.87452	-0.049889	-0.11297
0.83	24.723	0.86427	-0.046152	-0.11086
0.88	25.009	0.87275	-0.045767	-0.11144
0.93	25.29	0.91304	-0.045439	-0.11556
0.98	25.519	0.91195	-0.049574	-0.11994
1.03	25.761	0.93569	-0.042469	-0.11991
1.08	25.973	0.96911	-0.044356	-0.1273
1.13	26.189	0.95022	-0.045907	-0.12825
1.18	26.392	0.97055	-0.046063	-0.12983
1.23	26.57	0.97871	-0.04394	-0.13147
1.28	26.717	0.98662	-0.043672	-0.13515
1.33	26.836	0.9824	-0.046715	-0.13103
1.37	26.957	1.0129	-0.042476	-0.13418
1.42	27.122	1.0248	-0.045789	-0.14431
1.47	27.21	1.0186	-0.046076	-0.14563
1.52	27.242	1.0376	-0.047108	-0.14598
1.57	27.312	1.0566	-0.04402	-0.1454
1.62	27.346	1.0492	-0.048721	-0.15273
1.67	27.352	1.0521	-0.045443	-0.14974
1.72	27.385	1.0648	-0.046237	-0.15044
1.77	27.363	1.0387	-0.045853	-0.14743
1.82	27.343	1.057	-0.041351	-0.14869
1.87	27.348	1.0402	-0.045497	-0.144
1.91	27.349	0.99412	-0.043426	-0.1343
1.96	27.339	1.0365	-0.041468	-0.13962
2.01	27.352	0.99912	-0.048807	-0.1371
2.06	27.248	0.96723	-0.044835	-0.12986
2.11	26.941	1.011	-0.041678	-0.13261
2.16	26.77	0.9613	-0.050524	-0.12773
2.21	26.605	0.97256	-0.046315	-0.12818
2.26	26.386	0.98735	-0.047841	-0.13483
2.31	26.12	0.91706	-0.04999	-0.1199
2.36	25.891	0.93068	-0.046748	-0.11941
2.41	25.69	0.8993	-0.050507	-0.11853
2.45	25.387	0.87941	-0.049659	-0.11306
2.5	25.119	0.89348	-0.048666	-0.11565
2.55	24.842	0.87204	-0.048827	-0.10953
2.6	24.518	0.86097	-0.048382	-0.10876
2.65	24.171	0.86022	-0.050645	-0.10996
2.7	23.852	0.83015	-0.045219	-0.098427
2.75	23.482	0.83624	-0.048108	-0.10418
2.8	23.144	0.79774	-0.051132	-0.098148
2.85	22.804	0.78014	-0.048427	-0.091561
2.9	22.44	0.72081	-0.052602	-0.086196
2.95	22.067	0.70879	-0.052623	-0.08633
2.99	21.673	0.72073	-0.051979	-0.085633
3.04	21.313	0.71917	-0.0492	-0.080107
3.09	20.924	0.69171	-0.049066	-0.079161
3.14	20.563	0.67168	-0.050028	-0.07539
3.19	20.181	0.64491	-0.052901	-0.072249
3.24	19.801	0.63108	-0.053619	-0.076485
3.29	19.45	0.63435	-0.046957	-0.066399
3.34	19.034	0.61976	-0.049102	-0.068913
3.39	18.673	0.57389	-0.046319	-0.05836
3.44	18.286	0.58995	-0.045253	-0.060922
3.49	17.901	0.58569	-0.04612	-0.061725
3.53	17.534	0.57782	-0.045918	-0.062265
3.58	17.159	0.54738	-0.046416	-0.056272
3.63	16.785	0.52065	-0.044448	-0.050803
3.68	16.416	0.49822	-0.047631	-0.049494
3.73	16.08	0.5023	-0.044162	-0.048243
3.78	15.683	0.52937	-0.038435	-0.0513
3.83	15.356	0.52408	-0.043717	-0.056132
3.88	14.983	0.49316	-0.037369	-0.046878
3.93	14.7	0.49548	-0.033574	-0.041885
3.98	14.422	0.52118	-0.025286	-0.04558
4.03	14.145	0.55073	-0.01801	-0.048408
4.07	13.828	0.54985	-0.0051657	-0.034785
4.12	13.61	0.60551	0.02017	-0.02377
4.17	13.372	0.64679	0.049865	-0.0050547
4.22	13.114	0.72209	0.071801	0.00077431
4.27	12.947	0.77797	0.083469	-0.0036003
4.32	12.748	0.82559	0.094846	-0.0029061
4.37	12.559	0.86504	0.095577	-0.0048839
4.42	12.387	0.88948	0.089374	-0.022859
4.47	12.224	0.89889	0.091577	-0.025488
4.52	12.108	0.90015	0.086068	-0.029403
4.57	11.986	0.88562	0.096689	-0.013074
4.61	11.92	0.87956	0.099818	-0.0073329
4.66	11.813	0.92769	0.10749	-0.008833
4.71	11.742	0.91049	0.12351	0.0061788
4.76	11.713	0.90806	0.13393	0.0059857
4.81	11.673	0.92843	0.14959	0.022593
4.86	11.645	0.97033	0.15621	0.020835
4.91	11.627	0.99964	0.16762	0.016648
4.96	11.63	0.99568	0.1703	0.023897
5.01	11.657	1.0349	0.17886	0.021657
5.06	11.642	1.0374	0.17772	0.020109
5.11	11.642	1.0401	0.1819	0.020269
5.15	11.644	1.0602	0.18634	0.021463
5.2	11.682	1.0744	0.19331	0.021477
5.25	11.838	1.1111	0.19836	0.019854
5.3	12.003	1.1018	0.19792	0.017929
5.35	12.197	1.1182	0.20627	0.019278
5.4	12.408	1.1271	0.21414	0.021521
5.45	12.623	1.1516	0.22165	0.023662
5.5	12.882	1.1757	0.23025	0.021956
5.55	13.087	1.2215	0.24461	0.023044
5.6	13.366	1.2115	0.24837	0.024304
5.65	13.634	1.227	0.25517	0.02387
5.69	13.926	1.2512	0.26609	0.025539
5.74	14.22	1.2616	0.27477	0.027082
5.79	14.5	1.3007	0.2873	0.025426
5.84	14.839	1.3131	0.29453	0.021862
5.89	15.162	1.3449	0.30604	0.024337
5.94	15.504	1.3481	0.31334	0.024542
5.99	15.851	1.356	0.3229	0.022725
6.04	16.192	1.3965	0.33195	0.017977
6.09	16.564	1.4153	0.34214	0.011902
6.14	16.974	1.4465	0.3568	0.0081433
6.19	17.31	1.4633	0.35495	-0.0058103
6.23	17.69	1.4569	0.33502	-0.027722
