% Time() Angle(deg) Cn Ct Cm
0	1.2165	0.025025	-0.0038069	-0.00119
0.05	1.5751	0.065171	-0.00028632	0.0011163
0.1	1.9427	0.10935	-0.00030757	-0.0015952
0.15	2.3346	0.14346	0.0013455	-0.0016268
0.2	2.7278	0.18207	0.0043805	0.0022728
0.25	3.1331	0.23055	0.0091434	0.001299
0.29	3.5367	0.2702	0.011197	0.0036857
0.34	3.9129	0.30194	0.012494	0.0023063
0.39	4.2769	0.34842	0.017231	0.0019213
0.44	4.6802	0.38281	0.019401	-0.00030563
0.49	5.1016	0.42672	0.02668	0.0045852
0.54	5.4789	0.47235	0.032416	0.0017939
0.59	5.8637	0.51343	0.038682	0.003863
0.64	6.2544	0.54262	0.044437	0.0065682
0.69	6.6208	0.60406	0.051439	0.002028
0.74	6.9401	0.63376	0.060176	0.008319
0.79	7.2791	0.67944	0.06947	0.0062049
0.83	7.627	0.71926	0.076684	0.0056637
0.88	7.9053	0.74863	0.084209	0.0090047
0.93	8.1729	0.78301	0.094109	0.010681
0.98	8.4481	0.80188	0.097799	0.0089317
1.03	8.7337	0.82073	0.10428	0.011569
1.08	8.9574	0.85877	0.11128	0.010105
1.13	9.1961	0.87663	0.11798	0.010587
1.18	9.3864	0.89643	0.12607	0.014311
1.23	9.5465	0.92139	0.13168	0.013613
1.28	9.7232	0.92895	0.13493	0.013904
1.33	9.8848	0.93541	0.13837	0.01544
1.37	10.054	0.95517	0.14139	0.014386
1.42	10.138	0.96801	0.14857	0.016009
1.47	10.217	0.97547	0.14944	0.015699
1.52	10.303	0.98378	0.14999	0.015435
1.57	10.386	0.98219	0.15162	0.01454
1.62	10.418	1.0025	0.15654	0.01484
1.67	10.452	0.9907	0.15402	0.014546
1.72	10.446	1.0048	0.15857	0.016236
1.77	10.489	1.0002	0.15983	0.017651
1.82	10.464	0.98732	0.1574	0.016956
1.87	10.454	0.99406	0.15841	0.017526
1.91	10.431	1.005	0.15932	0.017533
1.96	10.436	0.99056	0.15794	0.022126
2.01	10.437	0.98011	0.15365	0.015172
2.06	10.372	0.97167	0.15376	0.019374
2.11	10.178	0.95802	0.15008	0.021042
2.16	9.9874	0.95681	0.14452	0.017313
2.21	9.8017	0.92116	0.13527	0.016476
2.26	9.5571	0.90586	0.13263	0.020326
2.31	9.3623	0.88705	0.12762	0.016815
2.36	9.1357	0.86721	0.12126	0.015242
2.41	8.8486	0.83094	0.11471	0.017986
2.45	8.5947	0.81291	0.10879	0.014044
2.5	8.312	0.7903	0.10176	0.016322
2.55	8.0081	0.7495	0.092189	0.015941
2.6	7.686	0.72964	0.087175	0.015185
2.65	7.3714	0.6931	0.076141	0.013516
2.7	7.04	0.66706	0.073698	0.014215
2.75	6.6798	0.63747	0.065134	0.011116
2.8	6.3134	0.59618	0.057159	0.01293
2.85	5.9545	0.56291	0.052186	0.013174
2.9	5.5774	0.50709	0.042607	0.012749
2.95	5.2213	0.47862	0.037701	0.011648
2.99	4.8121	0.4439	0.032883	0.010577
3.04	4.4164	0.38687	0.022788	0.0089662
3.09	4.0676	0.36079	0.02146	0.0086692
3.14	3.6763	0.30764	0.016147	0.010422
3.19	3.3015	0.28702	0.013409	0.0090491
3.24	2.8796	0.23248	0.0099902	0.011095
3.29	2.5031	0.20313	0.0090559	0.0086375
3.34	2.1204	0.16067	0.004167	0.0083525
3.39	1.7118	0.1237	0.0035028	0.0077243
3.44	1.332	0.077606	0.00089506	0.0060393
3.49	0.93229	0.044055	0.0017274	0.010249
3.53	0.56289	0.012257	0.0016056	0.007301
3.58	0.1417	-0.031109	-5.5629e-05	0.0052378
3.63	-0.21876	-0.072231	0.002836	0.0082049
3.68	-0.62191	-0.10695	0.002933	0.0048766
3.73	-0.97951	-0.15278	0.0023693	0.0057247
3.78	-1.3615	-0.19115	0.0062134	0.0086959
3.83	-1.7102	-0.22466	0.0068001	0.0030194
3.88	-2.0467	-0.26601	0.0088325	0.0053392
3.93	-2.3985	-0.30452	0.012198	0.0053138
3.98	-2.6788	-0.33204	0.016584	0.0065943
4.03	-2.9805	-0.35518	0.018328	0.0045992
4.07	-3.2762	-0.37854	0.023738	0.0078252
4.12	-3.5185	-0.41107	0.025837	0.0040494
4.17	-3.7517	-0.4259	0.028391	0.0031961
4.22	-4.0094	-0.43374	0.033	0.0049534
4.27	-4.2	-0.46062	0.03552	0.0038245
4.32	-4.4241	-0.49268	0.036348	0.0032328
4.37	-4.6102	-0.5059	0.040528	0.0038725
4.42	-4.7643	-0.5236	0.041824	0.0041193
4.47	-4.9504	-0.54302	0.043517	0.0041865
4.52	-5.0617	-0.55035	0.049052	0.0048927
4.57	-5.1746	-0.55908	0.046822	0.0038728
4.61	-5.2845	-0.57374	0.050378	0.0032477
4.66	-5.37	-0.5789	0.054326	0.0012209
4.71	-5.4279	-0.58425	0.055633	0.0035081
4.76	-5.4752	-0.59666	0.056805	0.0017
4.81	-5.5088	-0.59202	0.060582	0.0040856
4.86	-5.5332	-0.6162	0.058586	0.00034449
4.91	-5.5485	-0.62019	0.060963	0.0025677
4.96	-5.5256	-0.61484	0.062602	0.0043256
5.01	-5.5287	-0.60707	0.061102	0.0032062
5.06	-5.5271	-0.61155	0.060783	0.0033027
5.11	-5.5164	-0.604	0.059403	-7.1643e-05
5.15	-5.5424	-0.59322	0.060043	0.00086285
5.2	-5.4142	-0.5846	0.059203	0.0023515
5.25	-5.257	-0.57376	0.055646	0.0013226
5.3	-5.1167	-0.5661	0.05058	0.0019591
5.35	-4.9199	-0.54581	0.047978	-0.00079685
5.4	-4.7002	-0.53345	0.045781	0.0011613
5.45	-4.4882	-0.50096	0.040925	-0.0013806
5.5	-4.2762	-0.49569	0.041235	0.001102
5.55	-4.0261	-0.47759	0.036689	-0.00066787
5.6	-3.7731	-0.44966	0.035795	0.0011322
5.65	-3.5093	-0.42193	0.032732	-0.00081106
5.69	-3.2228	-0.39183	0.026376	-0.0029468
5.74	-2.8845	-0.36164	0.025259	-0.0030438
5.79	-2.624	-0.33132	0.023437	-0.00067658
5.84	-2.3071	-0.31434	0.018285	0.00081083
5.89	-1.9432	-0.28044	0.015466	0.00099778
5.94	-1.6158	-0.22563	0.015775	0.0023244
5.99	-1.2748	-0.20456	0.0095295	0.0016264
6.04	-0.90038	-0.17087	0.0070043	-0.0014002
6.09	-0.5428	-0.14013	0.0071112	0.0010789
6.14	-0.16857	-0.096401	0.0038468	0.0011157
6.19	0.2299	-0.058125	0.0021753	-0.00019565
6.23	0.6009	-0.016663	0.0010501	0.0013389
